generation,iteration,robot,birthday,ancestor_id,ancestor_birthday,cell_id,age,sigma,maps,genomes,fitness,cells_in_map,dist_max,dist_pot_max,dist_total,com_rx,com_tx,obj_group1,obj_group2,obj_group3,obj_group4,obj_group5
0,9999,0,0,0,0,49,9999,0.100000,0,0,0.000000,0,7.000000,0.000000,7.415695,0,0,0,0,0,0,0
0,9999,1,0,1,0,49,9999,0.100000,0,0,0.000000,0,6.000000,0.000000,8.074879,0,0,0,0,0,0,0
0,9999,2,0,2,0,49,9999,0.100000,0,0,0.000000,0,8.000000,0.000000,11.430697,0,0,0,0,0,0,0
0,9999,3,0,3,0,49,9999,0.100000,0,0,0.000000,0,7.000000,0.000000,11.946524,0,0,0,0,0,0,0
0,9999,4,0,4,0,49,9999,0.100000,0,0,0.000000,0,10.000000,0.000000,21.966012,0,0,0,0,0,0,0
0,9999,5,0,5,0,49,9999,0.100000,0,0,0.000000,0,5.000000,0.000000,5.965959,0,0,0,0,0,0,0
0,9999,6,0,6,0,49,9999,0.100000,0,0,0.000000,0,8.000000,0.000000,19.359346,0,0,0,0,0,0,0
0,9999,7,0,7,0,49,9999,0.100000,0,0,0.000000,0,9.000000,0.000000,27.683549,0,0,0,0,0,0,0
0,9999,8,0,8,0,49,9999,0.100000,0,0,0.000000,0,12.000000,0.000000,18.982898,0,0,0,0,0,0,0
0,9999,9,0,9,0,49,9999,0.100000,0,0,0.000000,0,6.000000,0.000000,18.784865,0,0,0,0,0,0,0
0,9999,10,0,10,0,49,9999,0.100000,0,0,0.000000,0,7.000000,0.000000,23.901876,0,0,0,0,0,0,0
0,9999,11,0,11,0,49,9999,0.100000,0,0,0.000000,0,10.000000,0.000000,17.757018,0,0,0,0,0,0,0
0,9999,12,0,12,0,49,9999,0.100000,0,0,0.000000,0,4.000000,0.000000,17.218998,0,0,0,0,0,0,0
0,9999,13,0,13,0,99,9999,0.100000,0,0,47.368421,0,8.000000,0.000000,13.805662,0,0,1,0,0,0,0
0,9999,14,0,14,0,49,9999,0.100000,0,0,0.000000,0,9.000000,0.000000,14.649020,0,0,0,0,0,0,0
0,9999,15,0,15,0,49,9999,0.100000,0,0,0.000000,0,3.000000,0.000000,14.084772,0,0,0,0,0,0,0
0,9999,16,0,16,0,49,9999,0.100000,0,0,0.000000,0,5.000000,0.000000,11.747119,0,0,0,0,0,0,0
0,9999,17,0,17,0,49,9999,0.100000,0,0,0.000000,0,12.000000,0.000000,25.425151,0,0,0,0,0,0,0
0,9999,18,0,18,0,49,9999,0.100000,0,0,0.000000,0,7.000000,0.000000,9.054214,0,0,0,0,0,0,0
0,9999,19,0,19,0,49,9999,0.100000,0,0,0.000000,0,8.000000,0.000000,10.613378,0,0,0,0,0,0,0
0,9999,20,0,20,0,49,9999,0.100000,0,0,0.000000,0,10.000000,0.000000,11.898373,0,0,0,0,0,0,0
0,9999,21,0,21,0,49,9999,0.100000,0,0,0.000000,0,11.000000,0.000000,14.629708,0,0,0,0,0,0,0
0,9999,22,0,22,0,49,9999,0.100000,0,0,0.000000,0,10.000000,0.000000,12.032654,0,0,0,0,0,0,0
0,9999,23,0,23,0,49,9999,0.100000,0,0,0.000000,0,6.000000,0.000000,10.429805,0,0,0,0,0,0,0
0,9999,24,0,24,0,49,9999,0.100000,0,0,0.000000,0,11.000000,0.000000,16.700765,0,0,0,0,0,0,0
0,9999,25,0,25,0,49,9999,0.100000,0,0,0.000000,0,6.000000,0.000000,16.849903,0,0,0,0,0,0,0
0,9999,26,0,26,0,49,9999,0.100000,0,0,0.000000,0,2.000000,0.000000,7.683708,0,0,0,0,0,0,0
0,9999,27,0,27,0,49,9999,0.100000,0,0,0.000000,0,5.000000,0.000000,11.770792,0,0,0,0,0,0,0
0,9999,28,0,28,0,49,9999,0.100000,0,0,0.000000,0,8.000000,0.000000,16.230117,0,0,0,0,0,0,0
0,9999,29,0,29,0,49,9999,0.100000,0,0,0.000000,0,10.000000,0.000000,13.791038,0,0,0,0,0,0,0
0,9999,30,0,30,0,49,9999,0.100000,0,0,0.000000,0,6.000000,0.000000,7.551881,0,0,0,0,0,0,0
0,9999,31,0,31,0,49,9999,0.100000,0,0,0.000000,0,7.000000,0.000000,9.734087,0,0,0,0,0,0,0
0,9999,32,0,32,0,49,9999,0.100000,0,0,0.000000,0,6.000000,0.000000,13.721669,0,0,0,0,0,0,0
0,9999,33,0,33,0,49,9999,0.100000,0,0,0.000000,0,6.000000,0.000000,11.230814,0,0,0,0,0,0,0
0,9999,34,0,34,0,49,9999,0.100000,0,0,0.000000,0,3.000000,0.000000,12.628342,0,0,0,0,0,0,0
0,9999,35,0,35,0,49,9999,0.100000,0,0,0.000000,0,11.000000,0.000000,34.950549,0,0,0,0,0,0,0
0,9999,36,0,36,0,49,9999,0.100000,0,0,0.000000,0,6.000000,0.000000,15.154815,0,0,0,0,0,0,0
0,9999,37,0,37,0,49,9999,0.100000,0,0,0.000000,0,6.000000,0.000000,8.328592,0,0,0,0,0,0,0
0,9999,38,0,38,0,49,9999,0.100000,0,0,0.000000,0,4.000000,0.000000,11.081281,0,0,0,0,0,0,0
0,9999,39,0,39,0,49,9999,0.100000,0,0,0.000000,0,10.000000,0.000000,11.433590,0,0,0,0,0,0,0
0,9999,40,0,40,0,49,9999,0.100000,0,0,0.000000,0,7.000000,0.000000,8.745169,0,0,0,0,0,0,0
0,9999,41,0,41,0,49,9999,0.100000,0,0,0.000000,0,9.000000,0.000000,13.010462,0,0,0,0,0,0,0
0,9999,42,0,42,0,49,9999,0.100000,0,0,0.000000,0,9.000000,0.000000,11.351446,0,0,0,0,0,0,0
0,9999,43,0,43,0,49,9999,0.100000,0,0,0.000000,0,11.000000,0.000000,19.331503,0,0,0,0,0,0,0
0,9999,44,0,44,0,49,9999,0.100000,0,0,0.000000,0,1.000000,0.000000,4.675805,0,0,0,0,0,0,0
0,9999,45,0,45,0,49,9999,0.100000,0,0,0.000000,0,6.000000,0.000000,14.467701,0,0,0,0,0,0,0
0,9999,46,0,46,0,49,9999,0.100000,0,0,0.000000,0,8.000000,0.000000,31.097078,0,0,0,0,0,0,0
0,9999,47,0,47,0,49,9999,0.100000,0,0,0.000000,0,3.000000,0.000000,11.290677,0,0,0,0,0,0,0
0,9999,48,0,48,0,49,9999,0.100000,0,0,0.000000,0,6.000000,0.000000,13.378891,0,0,0,0,0,0,0
0,9999,49,0,49,0,49,9999,0.100000,0,0,0.000000,0,7.000000,0.000000,26.282728,0,0,0,0,0,0,0
0,9999,50,0,50,0,49,9999,0.100000,0,0,0.000000,0,7.000000,0.000000,9.324437,0,0,0,0,0,0,0
0,9999,51,0,51,0,49,9999,0.100000,0,0,0.000000,0,9.000000,0.000000,20.277683,0,0,0,0,0,0,0
0,9999,52,0,52,0,49,9999,0.100000,0,0,0.000000,0,12.000000,0.000000,27.213945,0,0,0,0,0,0,0
0,9999,53,0,53,0,49,9999,0.100000,0,0,0.000000,0,3.000000,0.000000,12.221491,0,0,0,0,0,0,0
0,9999,54,0,54,0,49,9999,0.100000,0,0,0.000000,0,5.000000,0.000000,11.056911,0,0,0,0,0,0,0
0,9999,55,0,55,0,49,9999,0.100000,0,0,0.000000,0,9.000000,0.000000,21.395547,0,0,0,0,0,0,0
0,9999,56,0,56,0,49,9999,0.100000,0,0,0.000000,0,8.000000,0.000000,9.205227,0,0,0,0,0,0,0
0,9999,57,0,57,0,49,9999,0.100000,0,0,0.000000,0,12.000000,0.000000,16.304398,0,0,0,0,0,0,0
0,9999,58,0,58,0,49,9999,0.100000,0,0,0.000000,0,1.000000,0.000000,4.676084,0,0,0,0,0,0,0
0,9999,59,0,59,0,49,9999,0.100000,0,0,0.000000,0,11.000000,0.000000,16.252906,0,0,0,0,0,0,0
0,9999,60,0,60,0,49,9999,0.100000,0,0,0.000000,0,6.000000,0.000000,9.185741,0,0,0,0,0,0,0
0,9999,61,0,61,0,99,9999,0.100000,0,0,47.368421,0,9.000000,0.000000,21.195059,0,0,1,0,0,0,0
0,9999,62,0,62,0,49,9999,0.100000,0,0,0.000000,0,8.000000,0.000000,18.555637,0,0,0,0,0,0,0
0,9999,63,0,63,0,49,9999,0.100000,0,0,0.000000,0,5.000000,0.000000,5.749908,0,0,0,0,0,0,0
0,9999,64,0,64,0,49,9999,0.100000,0,0,0.000000,0,2.000000,0.000000,13.406647,0,0,0,0,0,0,0
0,9999,65,0,65,0,49,9999,0.100000,0,0,0.000000,0,4.000000,0.000000,13.822879,0,0,0,0,0,0,0
0,9999,66,0,66,0,49,9999,0.100000,0,0,0.000000,0,6.000000,0.000000,7.583591,0,0,0,0,0,0,0
0,9999,67,0,67,0,49,9999,0.100000,0,0,0.000000,0,7.000000,0.000000,23.422044,0,0,0,0,0,0,0
0,9999,68,0,68,0,49,9999,0.100000,0,0,0.000000,0,6.000000,0.000000,15.881872,0,0,0,0,0,0,0
0,9999,69,0,69,0,49,9999,0.100000,0,0,0.000000,0,6.000000,0.000000,7.343075,0,0,0,0,0,0,0
0,9999,70,0,70,0,49,9999,0.100000,0,0,0.000000,0,10.000000,0.000000,12.430954,0,0,0,0,0,0,0
0,9999,71,0,71,0,49,9999,0.100000,0,0,0.000000,0,8.000000,0.000000,9.408554,0,0,0,0,0,0,0
0,9999,72,0,72,0,49,9999,0.100000,0,0,0.000000,0,8.000000,0.000000,14.455638,0,0,0,0,0,0,0
0,9999,73,0,73,0,49,9999,0.100000,0,0,0.000000,0,2.000000,0.000000,3.601054,0,0,0,0,0,0,0
0,9999,74,0,74,0,49,9999,0.100000,0,0,0.000000,0,5.000000,0.000000,11.931413,0,0,0,0,0,0,0
0,9999,75,0,75,0,49,9999,0.100000,0,0,0.000000,0,10.000000,0.000000,15.193964,0,0,0,0,0,0,0
0,9999,76,0,76,0,49,9999,0.100000,0,0,0.000000,0,10.000000,0.000000,26.199132,0,0,0,0,0,0,0
0,9999,77,0,77,0,49,9999,0.100000,0,0,0.000000,0,8.000000,0.000000,12.131530,0,0,0,0,0,0,0
0,9999,78,0,78,0,49,9999,0.100000,0,0,0.000000,0,8.000000,0.000000,9.272235,0,0,0,0,0,0,0
0,9999,79,0,79,0,49,9999,0.100000,0,0,0.000000,0,7.000000,0.000000,14.248016,0,0,0,0,0,0,0
0,9999,80,0,80,0,49,9999,0.100000,0,0,0.000000,0,4.000000,0.000000,11.498453,0,0,0,0,0,0,0
0,9999,81,0,81,0,49,9999,0.100000,0,0,0.000000,0,8.000000,0.000000,12.843207,0,0,0,0,0,0,0
0,9999,82,0,82,0,49,9999,0.100000,0,0,0.000000,0,12.000000,0.000000,25.698925,0,0,0,0,0,0,0
0,9999,83,0,83,0,49,9999,0.100000,0,0,0.000000,0,9.000000,0.000000,10.249714,0,0,0,0,0,0,0
0,9999,84,0,84,0,49,9999,0.100000,0,0,0.000000,0,7.000000,0.000000,8.802570,0,0,0,0,0,0,0
0,9999,85,0,85,0,49,9999,0.100000,0,0,0.000000,0,7.000000,0.000000,11.304803,0,0,0,0,0,0,0
0,9999,86,0,86,0,49,9999,0.100000,0,0,0.000000,0,4.000000,0.000000,17.393033,0,0,0,0,0,0,0
0,9999,87,0,87,0,49,9999,0.100000,0,0,0.000000,0,6.000000,0.000000,13.181987,0,0,0,0,0,0,0
0,9999,88,0,88,0,49,9999,0.100000,0,0,0.000000,0,3.000000,0.000000,7.268450,0,0,0,0,0,0,0
0,9999,89,0,89,0,49,9999,0.100000,0,0,0.000000,0,10.000000,0.000000,22.374667,0,0,0,0,0,0,0
0,9999,90,0,90,0,49,9999,0.100000,0,0,0.000000,0,11.000000,0.000000,19.231607,0,0,0,0,0,0,0
0,9999,91,0,91,0,49,9999,0.100000,0,0,0.000000,0,4.000000,0.000000,10.163529,0,0,0,0,0,0,0
0,9999,92,0,92,0,49,9999,0.100000,0,0,47.368421,0,12.000000,0.000000,44.054242,0,0,1,0,1,0,0
0,9999,93,0,93,0,49,9999,0.100000,0,0,0.000000,0,3.000000,0.000000,6.788993,0,0,0,0,0,0,0
0,9999,94,0,94,0,49,9999,0.100000,0,0,0.000000,0,7.000000,0.000000,7.572677,0,0,0,0,0,0,0
0,9999,95,0,95,0,49,9999,0.100000,0,0,0.000000,0,10.000000,0.000000,13.537100,0,0,0,0,0,0,0
0,9999,96,0,96,0,49,9999,0.100000,0,0,0.000000,0,6.000000,0.000000,8.023509,0,0,0,0,0,0,0
0,9999,97,0,97,0,49,9999,0.100000,0,0,0.000000,0,9.000000,0.000000,28.087020,0,0,0,0,0,0,0
0,9999,98,0,98,0,49,9999,0.100000,0,0,0.000000,0,9.000000,0.000000,10.819563,0,0,0,0,0,0,0
0,9999,99,0,99,0,49,9999,0.100000,0,0,0.000000,0,10.000000,0.000000,18.926054,0,0,0,0,0,0,0
1,19999,0,10000,21,0,40,9999,0.100000,0,0,0.000000,3,0.000000,0.000000,0.387167,0,0,0,0,0,0,0
1,19999,1,10000,1,0,40,9999,0.100000,0,0,0.000000,2,0.000000,0.000000,0.821033,0,0,0,0,0,0,0
1,19999,2,10000,6,0,40,9999,0.100000,0,0,0.000000,3,0.000000,0.000000,0.913490,0,0,0,0,0,0,0
1,19999,3,10000,52,0,40,9999,0.100000,0,0,0.000000,3,0.000000,0.000000,1.016331,0,0,0,0,0,0,0
1,19999,4,10000,21,0,49,9999,0.100000,0,0,0.000000,3,6.000000,0.000000,18.790613,0,0,0,0,0,0,0
1,19999,5,10000,21,0,40,9999,0.100000,0,0,0.000000,3,0.000000,0.000000,0.419180,0,0,0,0,0,0,0
1,19999,6,10000,1,0,49,9999,0.100000,0,0,0.000000,3,2.000000,0.000000,5.058958,0,0,0,0,0,0,0
1,19999,7,10000,13,0,40,9999,0.100000,0,0,0.000000,3,0.000000,0.000000,2.750088,0,0,0,0,0,0,0
1,19999,8,10000,52,0,40,9999,0.100000,0,0,0.000000,3,0.000000,0.000000,0.174689,0,0,0,0,0,0,0
1,19999,9,10000,52,0,49,9999,0.100000,0,0,0.000000,3,2.000000,0.000000,3.864021,0,0,0,0,0,0,0
1,19999,10,10000,21,0,49,9999,0.100000,0,0,0.000000,3,1.000000,0.000000,1.624484,0,0,0,0,0,0,0
1,19999,11,10000,52,0,40,9999,0.100000,0,0,0.000000,3,0.000000,0.000000,1.606547,0,0,0,0,0,0,0
1,19999,12,10000,6,0,40,9999,0.100000,0,0,0.000000,3,0.000000,0.000000,5.548611,0,0,0,0,0,0,0
1,19999,13,10000,21,0,40,9999,0.100000,0,0,0.000000,3,0.000000,0.000000,0.879635,0,0,0,0,0,0,0
1,19999,14,10000,21,0,40,9999,0.100000,0,0,0.000000,3,0.000000,0.000000,0.580250,0,0,0,0,0,0,0
1,19999,15,10000,21,0,49,9999,0.100000,0,0,0.000000,3,1.000000,0.000000,3.411110,0,0,0,0,0,0,0
1,19999,16,10000,16,0,49,9999,0.100000,0,0,0.000000,1,1.000000,0.000000,6.860438,0,0,0,0,0,0,0
1,19999,17,10000,13,0,40,9999,0.100000,0,0,0.000000,3,0.000000,0.000000,0.725318,0,0,0,0,0,0,0
1,19999,18,10000,52,0,40,9999,0.100000,0,0,0.000000,3,0.000000,0.000000,1.794121,0,0,0,0,0,0,0
1,19999,19,10000,52,0,40,9999,0.100000,0,0,0.000000,3,0.000000,0.000000,1.127038,0,0,0,0,0,0,0
1,19999,20,10000,13,0,40,9999,0.100000,0,0,0.000000,3,0.000000,0.000000,0.703207,0,0,0,0,0,0,0
1,19999,21,10000,52,0,49,9999,0.100000,0,0,0.000000,3,1.000000,0.000000,2.159963,0,0,0,0,0,0,0
1,19999,22,10000,52,0,40,9999,0.100000,0,0,0.000000,3,0.000000,0.000000,0.704623,0,0,0,0,0,0,0
1,19999,23,10000,6,0,49,9999,0.100000,0,0,0.000000,3,1.000000,0.000000,1.409611,0,0,0,0,0,0,0
1,19999,24,10000,52,0,40,9999,0.100000,0,0,0.000000,3,0.000000,0.000000,2.302750,0,0,0,0,0,0,0
1,19999,25,10000,21,0,49,9999,0.100000,0,0,0.000000,3,2.000000,0.000000,8.893285,0,0,0,0,0,0,0
1,19999,26,10000,52,0,40,9999,0.100000,0,0,0.000000,3,0.000000,0.000000,0.276652,0,0,0,0,0,0,0
1,19999,27,10000,52,0,49,9999,0.100000,0,0,0.000000,3,4.000000,0.000000,10.275079,0,0,0,0,0,0,0
1,19999,28,10000,21,0,49,9999,0.100000,0,0,0.000000,3,3.000000,0.000000,12.955463,0,0,0,0,0,0,0
1,19999,29,10000,13,0,49,9999,0.100000,0,0,0.000000,3,3.000000,0.000000,14.053159,0,0,0,0,0,0,0
1,19999,30,10000,16,0,49,9999,0.100000,0,0,0.000000,3,3.000000,0.000000,9.114948,0,0,0,0,0,0,0
1,19999,31,10000,21,0,49,9999,0.100000,0,0,0.000000,3,1.000000,0.000000,2.548117,0,0,0,0,0,0,0
1,19999,32,10000,6,0,9,9999,0.100000,0,0,34.210526,3,2.000000,0.000000,15.089617,0,0,0,1,0,0,0
1,19999,33,0,33,0,40,19999,0.100000,0,0,0.000000,3,0.000000,0.000000,0.746978,0,0,0,0,0,0,0
1,19999,34,10000,52,0,49,9999,0.100000,0,0,0.000000,3,1.000000,0.000000,3.062674,0,0,0,0,0,0,0
1,19999,35,10000,13,0,9,9999,0.100000,0,0,34.210526,3,12.000000,0.000000,15.481966,0,0,0,1,0,0,0
1,19999,36,10000,52,0,49,9999,0.100000,0,0,0.000000,3,4.000000,0.000000,18.984788,0,0,0,0,0,0,0
1,19999,37,10000,21,0,40,9999,0.100000,0,0,0.000000,3,0.000000,0.000000,1.983581,0,0,0,0,0,0,0
1,19999,38,10000,52,0,49,9999,0.100000,0,0,0.000000,3,1.000000,0.000000,2.330211,0,0,0,0,0,0,0
1,19999,39,10000,21,0,40,9999,0.100000,0,0,0.000000,3,0.000000,0.000000,0.640114,0,0,0,0,0,0,0
1,19999,40,10000,13,0,40,9999,0.100000,0,0,0.000000,3,0.000000,0.000000,0.294496,0,0,0,0,0,0,0
1,19999,41,10000,6,0,49,9999,0.100000,0,0,0.000000,3,1.000000,0.000000,5.427852,0,0,0,0,0,0,0
1,19999,42,10000,16,0,40,9999,0.100000,0,0,0.000000,3,0.000000,0.000000,1.293463,0,0,0,0,0,0,0
1,19999,43,10000,21,0,40,9999,0.100000,0,0,0.000000,3,0.000000,0.000000,1.488238,0,0,0,0,0,0,0
1,19999,44,10000,21,0,49,9999,0.100000,0,0,0.000000,3,2.000000,0.000000,8.647093,0,0,0,0,0,0,0
1,19999,45,10000,21,0,40,9999,0.100000,0,0,0.000000,3,0.000000,0.000000,3.107650,0,0,0,0,0,0,0
1,19999,46,10000,6,0,99,9999,0.100000,0,0,34.210526,3,3.000000,0.000000,10.553304,0,0,1,0,0,0,0
1,19999,47,10000,52,0,49,9999,0.100000,0,0,0.000000,3,1.000000,0.000000,11.682388,0,0,0,0,0,0,0
1,19999,48,10000,6,0,40,9999,0.100000,0,0,0.000000,3,0.000000,0.000000,1.110102,0,0,0,0,0,0,0
1,19999,49,10000,21,0,49,9999,0.100000,0,0,0.000000,3,4.000000,0.000000,10.041365,0,0,0,0,0,0,0
1,19999,50,10000,21,0,49,9999,0.100000,0,0,0.000000,3,1.000000,0.000000,2.904442,0,0,0,0,0,0,0
1,19999,51,10000,21,0,40,9999,0.100000,0,0,0.000000,3,0.000000,0.000000,0.530973,0,0,0,0,0,0,0
1,19999,52,10000,52,0,99,9999,0.100000,0,0,34.210526,3,16.000000,0.000000,22.860299,0,0,1,0,0,0,0
1,19999,53,10000,52,0,49,9999,0.100000,0,0,0.000000,3,3.000000,0.000000,6.282036,0,0,0,0,0,0,0
1,19999,54,10000,13,0,49,9999,0.100000,0,0,0.000000,3,5.000000,0.000000,16.156393,0,0,0,0,0,0,0
1,19999,55,0,55,0,49,19999,0.100000,0,0,0.000000,3,5.000000,0.000000,8.910321,0,0,0,0,0,0,0
1,19999,56,10000,13,0,40,9999,0.100000,0,0,0.000000,3,0.000000,0.000000,0.447774,0,0,0,0,0,0,0
1,19999,57,0,57,0,40,19999,0.100000,0,0,0.000000,3,0.000000,0.000000,1.591293,0,0,0,0,0,0,0
1,19999,58,10000,13,0,49,9999,0.100000,0,0,0.000000,3,1.000000,0.000000,2.339795,0,0,0,0,0,0,0
1,19999,59,10000,52,0,49,9999,0.100000,0,0,0.000000,3,1.000000,0.000000,2.191212,0,0,0,0,0,0,0
1,19999,60,10000,6,0,40,9999,0.100000,0,0,0.000000,3,0.000000,0.000000,0.912851,0,0,0,0,0,0,0
1,19999,61,10000,6,0,49,9999,0.100000,0,0,0.000000,3,8.000000,0.000000,22.162815,0,0,0,0,0,0,0
1,19999,62,10000,13,0,49,9999,0.100000,0,0,0.000000,3,3.000000,0.000000,13.252671,0,0,0,0,0,0,0
1,19999,63,10000,13,0,40,9999,0.100000,0,0,0.000000,3,0.000000,0.000000,0.131268,0,0,0,0,0,0,0
1,19999,64,10000,52,0,49,9999,0.100000,0,0,0.000000,3,1.000000,0.000000,9.920745,0,0,0,0,0,0,0
1,19999,65,10000,52,0,40,9999,0.100000,0,0,0.000000,3,0.000000,0.000000,0.643142,0,0,0,0,0,0,0
1,19999,66,10000,21,0,9,9999,0.100000,0,0,34.210526,3,2.000000,0.000000,5.022577,0,0,0,1,0,0,0
1,19999,67,10000,13,0,49,9999,0.100000,0,0,0.000000,3,1.000000,0.000000,8.547899,0,0,0,0,0,0,0
1,19999,68,10000,21,0,49,9999,0.100000,0,0,0.000000,3,3.000000,0.000000,4.506786,0,0,0,0,0,0,0
1,19999,69,10000,52,0,49,9999,0.100000,0,0,0.000000,3,3.000000,0.000000,8.864953,0,0,0,0,0,0,0
1,19999,70,10000,52,0,40,9999,0.100000,0,0,0.000000,3,0.000000,0.000000,1.931494,0,0,0,0,0,0,0
1,19999,71,10000,52,0,40,9999,0.100000,0,0,0.000000,3,0.000000,0.000000,0.701556,0,0,0,0,0,0,0
1,19999,72,10000,21,0,40,9999,0.100000,0,0,0.000000,3,0.000000,0.000000,1.323519,0,0,0,0,0,0,0
1,19999,73,0,73,0,40,19999,0.100000,0,0,0.000000,3,0.000000,0.000000,0.402155,0,0,0,0,0,0,0
1,19999,74,10000,13,0,40,9999,0.100000,0,0,0.000000,3,0.000000,0.000000,1.909639,0,0,0,0,0,0,0
1,19999,75,10000,52,0,49,9999,0.100000,0,0,0.000000,3,7.000000,0.000000,13.945901,0,0,0,0,0,0,0
1,19999,76,10000,42,0,49,9999,0.100000,0,0,0.000000,3,3.000000,0.000000,13.263910,0,0,0,0,0,0,0
1,19999,77,10000,6,0,40,9999,0.100000,0,0,0.000000,3,0.000000,0.000000,4.042130,0,0,0,0,0,0,0
1,19999,78,10000,13,0,40,9999,0.100000,0,0,0.000000,3,0.000000,0.000000,0.692622,0,0,0,0,0,0,0
1,19999,79,10000,52,0,9,9999,0.100000,0,0,34.210526,3,12.000000,0.000000,20.012161,0,0,0,1,0,0,0
1,19999,80,10000,52,0,49,9999,0.100000,0,0,0.000000,3,2.000000,0.000000,2.641615,0,0,0,0,0,0,0
1,19999,81,10000,21,0,40,9999,0.100000,0,0,0.000000,3,0.000000,0.000000,1.247369,0,0,0,0,0,0,0
1,19999,82,10000,13,0,49,9999,0.100000,0,0,0.000000,3,2.000000,0.000000,6.170105,0,0,0,0,0,0,0
1,19999,83,10000,21,0,40,9999,0.100000,0,0,0.000000,3,0.000000,0.000000,0.380051,0,0,0,0,0,0,0
1,19999,84,10000,21,0,40,9999,0.100000,0,0,0.000000,3,0.000000,0.000000,1.109931,0,0,0,0,0,0,0
1,19999,85,10000,42,0,40,9999,0.100000,0,0,0.000000,3,0.000000,0.000000,0.215392,0,0,0,0,0,0,0
1,19999,86,10000,52,0,49,9999,0.100000,0,0,0.000000,3,2.000000,0.000000,8.196134,0,0,0,0,0,0,0
1,19999,87,10000,21,0,40,9999,0.100000,0,0,0.000000,3,0.000000,0.000000,2.881021,0,0,0,0,0,0,0
1,19999,88,10000,21,0,49,9999,0.100000,0,0,0.000000,3,1.000000,0.000000,2.757800,0,0,0,0,0,0,0
1,19999,89,10000,52,0,40,9999,0.100000,0,0,0.000000,3,0.000000,0.000000,0.674341,0,0,0,0,0,0,0
1,19999,90,10000,21,0,49,9999,0.100000,0,0,0.000000,3,1.000000,0.000000,1.414472,0,0,0,0,0,0,0
1,19999,91,10000,52,0,49,9999,0.100000,0,0,0.000000,3,2.000000,0.000000,4.686044,0,0,0,0,0,0,0
1,19999,92,10000,13,0,40,9999,0.100000,0,0,0.000000,3,0.000000,0.000000,6.542444,0,0,0,0,0,0,0
1,19999,93,10000,52,0,49,9999,0.100000,0,0,0.000000,3,5.000000,0.000000,13.772566,0,0,0,0,0,0,0
1,19999,94,10000,21,0,40,9999,0.100000,0,0,0.000000,3,0.000000,0.000000,0.621207,0,0,0,0,0,0,0
1,19999,95,10000,52,0,40,9999,0.100000,0,0,0.000000,3,0.000000,0.000000,0.108440,0,0,0,0,0,0,0
1,19999,96,10000,21,0,40,9999,0.100000,0,0,0.000000,3,0.000000,0.000000,0.226560,0,0,0,0,0,0,0
1,19999,97,0,97,0,49,19999,0.100000,0,0,0.000000,3,2.000000,0.000000,5.543473,0,0,0,0,0,0,0
1,19999,98,10000,52,0,40,9999,0.100000,0,0,0.000000,3,0.000000,0.000000,0.658560,0,0,0,0,0,0,0
1,19999,99,10000,52,0,49,9999,0.100000,0,0,0.000000,3,3.000000,0.000000,4.549759,0,0,0,0,0,0,0
2,29999,0,20000,52,0,40,9999,0.100000,0,0,0.000000,5,0.000000,0.000000,0.401188,0,0,0,0,0,0,0
2,29999,1,20000,21,0,40,9999,0.100000,0,0,0.000000,5,0.000000,0.000000,0.513355,0,0,0,0,0,0,0
2,29999,2,20000,24,10000,40,9999,0.100000,0,0,0.000000,5,0.000000,0.000000,0.614730,0,0,0,0,0,0,0
2,29999,3,20000,3,10000,40,9999,0.100000,0,0,0.000000,4,0.000000,0.000000,0.469556,0,0,0,0,0,0,0
2,29999,4,20000,52,0,40,9999,0.100000,0,0,0.000000,5,0.000000,0.000000,3.130729,0,0,0,0,0,0,0
2,29999,5,20000,52,0,40,9999,0.100000,0,0,0.000000,5,0.000000,0.000000,0.088611,0,0,0,0,0,0,0
2,29999,6,20000,21,0,49,9999,0.100000,0,0,0.000000,5,1.000000,0.000000,1.353992,0,0,0,0,0,0,0
2,29999,7,20000,52,0,49,9999,0.100000,0,0,0.000000,5,3.000000,0.000000,4.672902,0,0,0,0,0,0,0
2,29999,8,20000,24,10000,40,9999,0.100000,0,0,0.000000,5,0.000000,0.000000,0.169239,0,0,0,0,0,0,0
2,29999,9,20000,3,10000,40,9999,0.100000,0,0,0.000000,4,0.000000,0.000000,0.069045,0,0,0,0,0,0,0
2,29999,10,20000,13,0,40,9999,0.100000,0,0,0.000000,5,0.000000,0.000000,0.863279,0,0,0,0,0,0,0
2,29999,11,20000,24,10000,49,9999,0.100000,0,0,0.000000,5,3.000000,0.000000,3.917084,0,0,0,0,0,0,0
2,29999,12,20000,21,0,49,9999,0.100000,0,0,0.000000,5,1.000000,0.000000,11.633492,0,0,0,0,0,0,0
2,29999,13,20000,13,0,49,9999,0.100000,0,0,0.000000,4,1.000000,0.000000,2.232137,0,0,0,0,0,0,0
2,29999,14,20000,21,0,40,9999,0.100000,0,0,0.000000,5,0.000000,0.000000,0.656139,0,0,0,0,0,0,0
2,29999,15,20000,52,0,49,9999,0.100000,0,0,0.000000,4,7.000000,0.000000,7.464196,0,0,0,0,0,0,0
2,29999,16,20000,65,10000,40,9999,0.100000,0,0,0.000000,5,0.000000,0.000000,1.072869,0,0,0,0,0,0,0
2,29999,17,20000,65,10000,40,9999,0.100000,0,0,0.000000,5,0.000000,0.000000,0.652792,0,0,0,0,0,0,0
2,29999,18,20000,65,10000,40,9999,0.100000,0,0,0.000000,5,0.000000,0.000000,0.869879,0,0,0,0,0,0,0
2,29999,19,20000,52,0,40,9999,0.100000,0,0,0.000000,5,0.000000,0.000000,0.544245,0,0,0,0,0,0,0
2,29999,20,20000,21,0,40,9999,0.100000,0,0,0.000000,5,0.000000,0.000000,0.632766,0,0,0,0,0,0,0
2,29999,21,20000,3,10000,40,9999,0.100000,0,0,0.000000,5,0.000000,0.000000,1.003480,0,0,0,0,0,0,0
2,29999,22,20000,13,0,40,9999,0.100000,0,0,0.000000,5,0.000000,0.000000,0.627205,0,0,0,0,0,0,0
2,29999,23,20000,21,0,40,9999,0.100000,0,0,0.000000,5,0.000000,0.000000,0.663404,0,0,0,0,0,0,0
2,29999,24,20000,24,10000,49,9999,0.100000,0,0,0.000000,5,3.000000,0.000000,4.403375,0,0,0,0,0,0,0
2,29999,25,20000,65,10000,40,9999,0.100000,0,0,0.000000,5,0.000000,0.000000,2.635234,0,0,0,0,0,0,0
2,29999,26,20000,24,10000,40,9999,0.100000,0,0,0.000000,5,0.000000,0.000000,0.523018,0,0,0,0,0,0,0
2,29999,27,20000,24,10000,40,9999,0.100000,0,0,0.000000,5,0.000000,0.000000,1.536423,0,0,0,0,0,0,0
2,29999,28,20000,24,10000,40,9999,0.100000,0,0,0.000000,5,0.000000,0.000000,0.907901,0,0,0,0,0,0,0
2,29999,29,20000,65,10000,40,9999,0.100000,0,0,0.000000,5,0.000000,0.000000,1.005324,0,0,0,0,0,0,0
2,29999,30,20000,65,10000,40,9999,0.100000,0,0,0.000000,5,0.000000,0.000000,2.113556,0,0,0,0,0,0,0
2,29999,31,20000,24,10000,40,9999,0.100000,0,0,0.000000,5,0.000000,0.000000,1.054971,0,0,0,0,0,0,0
2,29999,32,20000,21,0,49,9999,0.135000,0,0,0.000000,5,1.000000,0.000000,9.088933,0,0,0,0,0,0,0
2,29999,33,20000,24,10000,40,9999,0.100000,0,0,0.000000,5,0.000000,0.000000,0.866790,0,0,0,0,0,0,0
2,29999,34,20000,24,10000,40,9999,0.100000,0,0,0.000000,5,0.000000,0.000000,0.099363,0,0,0,0,0,0,0
2,29999,35,20000,24,10000,49,9999,0.100000,0,0,0.000000,5,6.000000,0.000000,22.347255,0,0,0,0,0,0,0
2,29999,36,20000,13,0,49,9999,0.100000,0,0,0.000000,4,1.000000,0.000000,4.682374,0,0,0,0,0,0,0
2,29999,37,20000,13,0,40,9999,0.100000,0,0,0.000000,5,0.000000,0.000000,0.771168,0,0,0,0,0,0,0
2,29999,38,20000,13,0,40,9999,0.100000,0,0,0.000000,5,0.000000,0.000000,0.242083,0,0,0,0,0,0,0
2,29999,39,20000,21,0,40,9999,0.100000,0,0,0.000000,5,0.000000,0.000000,1.083051,0,0,0,0,0,0,0
2,29999,40,20000,30,10000,40,9999,0.100000,0,0,0.000000,5,0.000000,0.000000,0.281782,0,0,0,0,0,0,0
2,29999,41,20000,21,0,49,9999,0.100000,0,0,0.000000,4,5.000000,0.000000,20.050561,0,0,0,0,0,0,0
2,29999,42,20000,65,10000,40,9999,0.100000,0,0,0.000000,5,0.000000,0.000000,0.955877,0,0,0,0,0,0,0
2,29999,43,20000,65,10000,40,9999,0.100000,0,0,0.000000,5,0.000000,0.000000,0.619271,0,0,0,0,0,0,0
2,29999,44,20000,52,0,49,9999,0.100000,0,0,0.000000,5,3.000000,0.000000,14.439745,0,0,0,0,0,0,0
2,29999,45,20000,13,0,40,9999,0.100000,0,0,0.000000,5,0.000000,0.000000,1.334040,0,0,0,0,0,0,0
2,29999,46,20000,65,10000,49,9999,0.100000,0,0,0.000000,5,1.000000,0.000000,3.377884,0,0,0,0,0,0,0
2,29999,47,20000,13,0,49,9999,0.100000,0,0,0.000000,5,2.000000,0.000000,5.793982,0,0,0,0,0,0,0
2,29999,48,20000,3,10000,40,9999,0.100000,0,0,0.000000,4,0.000000,0.000000,0.409775,0,0,0,0,0,0,0
2,29999,49,20000,13,0,49,9999,0.100000,0,0,0.000000,5,2.000000,0.000000,17.540003,0,0,0,0,0,0,0
2,29999,50,20000,65,10000,49,9999,0.100000,0,0,0.000000,5,1.000000,0.000000,3.252584,0,0,0,0,0,0,0
2,29999,51,20000,52,0,40,9999,0.100000,0,0,0.000000,5,0.000000,0.000000,0.549646,0,0,0,0,0,0,0
2,29999,52,20000,65,10000,49,9999,0.100000,0,0,0.000000,5,1.000000,0.000000,4.033453,0,0,0,0,0,0,0
2,29999,53,20000,52,0,40,9999,0.100000,0,0,0.000000,5,0.000000,0.000000,0.939464,0,0,0,0,0,0,0
2,29999,54,20000,65,10000,49,9999,0.100000,0,0,0.000000,5,3.000000,0.000000,8.572955,0,0,0,0,0,0,0
2,29999,55,20000,52,0,49,9999,0.100000,0,0,0.000000,5,4.000000,0.000000,5.657499,0,0,0,0,0,0,0
2,29999,56,20000,65,10000,40,9999,0.100000,0,0,0.000000,5,0.000000,0.000000,0.668167,0,0,0,0,0,0,0
2,29999,57,20000,21,0,49,9999,0.100000,0,0,0.000000,5,1.000000,0.000000,24.210443,0,0,0,0,0,0,0
2,29999,58,20000,21,0,49,9999,0.100000,0,0,0.000000,5,4.000000,0.000000,5.301727,0,0,0,0,0,0,0
2,29999,59,20000,24,10000,40,9999,0.100000,0,0,0.000000,5,0.000000,0.000000,0.979560,0,0,0,0,0,0,0
2,29999,60,20000,30,10000,40,9999,0.100000,0,0,0.000000,5,0.000000,0.000000,0.164318,0,0,0,0,0,0,0
2,29999,61,20000,13,0,9,9999,0.100000,0,0,34.210526,5,5.000000,0.000000,13.934949,0,0,0,1,0,0,0
2,29999,62,20000,65,10000,40,9999,0.100000,0,0,0.000000,5,0.000000,0.000000,0.536524,0,0,0,0,0,0,0
2,29999,63,20000,52,0,40,9999,0.100000,0,0,0.000000,5,0.000000,0.000000,0.215114,0,0,0,0,0,0,0
2,29999,64,20000,30,10000,49,9999,0.100000,0,0,0.000000,5,1.000000,0.000000,20.958170,0,0,0,0,0,0,0
2,29999,65,20000,21,0,49,9999,0.100000,0,0,0.000000,5,1.000000,0.000000,7.982087,0,0,0,0,0,0,0
2,29999,66,20000,30,10000,49,9999,0.100000,0,0,0.000000,5,1.000000,0.000000,1.922236,0,0,0,0,0,0,0
2,29999,67,20000,13,0,49,9999,0.100000,0,0,0.000000,5,1.000000,0.000000,3.662998,0,0,0,0,0,0,0
2,29999,68,20000,24,10000,40,9999,0.100000,0,0,0.000000,5,0.000000,0.000000,0.814991,0,0,0,0,0,0,0
2,29999,69,20000,65,10000,40,9999,0.100000,0,0,0.000000,5,0.000000,0.000000,0.527554,0,0,0,0,0,0,0
2,29999,70,20000,24,10000,49,9999,0.100000,0,0,0.000000,5,3.000000,0.000000,3.923649,0,0,0,0,0,0,0
2,29999,71,20000,21,0,40,9999,0.100000,0,0,0.000000,5,0.000000,0.000000,0.312893,0,0,0,0,0,0,0
2,29999,72,20000,13,0,40,9999,0.100000,0,0,0.000000,5,0.000000,0.000000,3.864708,0,0,0,0,0,0,0
2,29999,73,20000,24,10000,40,9999,0.100000,0,0,0.000000,5,0.000000,0.000000,0.716309,0,0,0,0,0,0,0
2,29999,74,20000,24,10000,40,9999,0.100000,0,0,0.000000,5,0.000000,0.000000,1.759475,0,0,0,0,0,0,0
2,29999,75,20000,13,0,49,9999,0.100000,0,0,0.000000,5,1.000000,0.000000,5.711758,0,0,0,0,0,0,0
2,29999,76,20000,65,10000,49,9999,0.100000,0,0,0.000000,5,1.000000,0.000000,21.483045,0,0,0,0,0,0,0
2,29999,77,20000,21,0,49,9999,0.100000,0,0,0.000000,5,1.000000,0.000000,1.859825,0,0,0,0,0,0,0
2,29999,78,20000,52,0,49,9999,0.100000,0,0,0.000000,5,1.000000,0.000000,4.882487,0,0,0,0,0,0,0
2,29999,79,20000,13,0,49,9999,0.100000,0,0,0.000000,5,3.000000,0.000000,8.242690,0,0,0,0,0,0,0
2,29999,80,20000,21,0,49,9999,0.100000,0,0,0.000000,5,7.000000,0.000000,10.375339,0,0,0,0,0,0,0
2,29999,81,20000,24,10000,40,9999,0.100000,0,0,0.000000,5,0.000000,0.000000,0.671053,0,0,0,0,0,0,0
2,29999,82,20000,21,0,40,9999,0.100000,0,0,0.000000,5,0.000000,0.000000,1.021857,0,0,0,0,0,0,0
2,29999,83,20000,52,0,49,9999,0.100000,0,0,0.000000,5,6.000000,0.000000,25.204095,0,0,0,0,0,0,0
2,29999,84,20000,24,10000,40,9999,0.100000,0,0,0.000000,5,0.000000,0.000000,2.088919,0,0,0,0,0,0,0
2,29999,85,20000,30,10000,40,9999,0.100000,0,0,0.000000,5,0.000000,0.000000,0.284923,0,0,0,0,0,0,0
2,29999,86,20000,21,0,49,9999,0.100000,0,0,0.000000,5,4.000000,0.000000,4.895241,0,0,0,0,0,0,0
2,29999,87,20000,24,10000,40,9999,0.100000,0,0,0.000000,5,0.000000,0.000000,0.707884,0,0,0,0,0,0,0
2,29999,88,20000,21,0,49,9999,0.100000,0,0,0.000000,5,4.000000,0.000000,4.777275,0,0,0,0,0,0,0
2,29999,89,20000,24,10000,40,9999,0.100000,0,0,0.000000,5,0.000000,0.000000,0.600048,0,0,0,0,0,0,0
2,29999,90,20000,65,10000,9,9999,0.100000,0,0,34.210526,5,1.000000,0.000000,2.516605,0,0,0,1,0,0,0
2,29999,91,20000,24,10000,49,9999,0.100000,0,0,0.000000,5,7.000000,0.000000,10.399532,0,0,0,0,0,0,0
2,29999,92,20000,52,0,40,9999,0.100000,0,0,0.000000,5,0.000000,0.000000,1.835170,0,0,0,0,0,0,0
2,29999,93,20000,24,10000,40,9999,0.100000,0,0,0.000000,5,0.000000,0.000000,1.883891,0,0,0,0,0,0,0
2,29999,94,20000,65,10000,40,9999,0.100000,0,0,0.000000,5,0.000000,0.000000,0.380040,0,0,0,0,0,0,0
2,29999,95,20000,21,0,40,9999,0.100000,0,0,0.000000,5,0.000000,0.000000,0.441343,0,0,0,0,0,0,0
2,29999,96,20000,13,0,40,9999,0.100000,0,0,0.000000,5,0.000000,0.000000,0.155771,0,0,0,0,0,0,0
2,29999,97,20000,52,0,49,9999,0.100000,0,0,0.000000,5,7.000000,0.000000,12.110510,0,0,0,0,0,0,0
2,29999,98,20000,52,0,40,9999,0.100000,0,0,0.000000,5,0.000000,0.000000,0.562006,0,0,0,0,0,0,0
2,29999,99,20000,52,0,40,9999,0.100000,0,0,0.000000,5,0.000000,0.000000,0.820541,0,0,0,0,0,0,0
3,39999,0,30000,65,10000,49,9999,0.100000,0,0,0.000000,6,1.000000,0.000000,1.753207,0,0,0,0,0,0,0
3,39999,1,30000,24,10000,40,9999,0.100000,0,0,0.000000,6,0.000000,0.000000,0.586309,0,0,0,0,0,0,0
3,39999,2,30000,30,10000,40,9999,0.100000,0,0,0.000000,5,0.000000,0.000000,0.367107,0,0,0,0,0,0,0
3,39999,3,30000,13,0,49,9999,0.100000,0,0,0.000000,6,3.000000,0.000000,6.813449,0,0,0,0,0,0,0
3,39999,4,30000,13,0,40,9999,0.100000,0,0,0.000000,6,0.000000,0.000000,1.033908,0,0,0,0,0,0,0
3,39999,5,30000,13,0,40,9999,0.100000,0,0,0.000000,6,0.000000,0.000000,1.944485,0,0,0,0,0,0,0
3,39999,6,30000,13,0,40,9999,0.100000,0,0,0.000000,6,0.000000,0.000000,0.953922,0,0,0,0,0,0,0
3,39999,7,30000,13,0,49,9999,0.100000,0,0,0.000000,6,3.000000,0.000000,5.472920,0,0,0,0,0,0,0
3,39999,8,30000,24,10000,40,9999,0.100000,0,0,0.000000,6,0.000000,0.000000,0.170301,0,0,0,0,0,0,0
3,39999,9,30000,13,0,40,9999,0.100000,0,0,0.000000,6,0.000000,0.000000,0.068555,0,0,0,0,0,0,0
3,39999,10,30000,65,10000,40,9999,0.100000,0,0,0.000000,6,0.000000,0.000000,0.993299,0,0,0,0,0,0,0
3,39999,11,30000,13,0,49,9999,0.100000,0,0,0.000000,6,1.000000,0.000000,2.732497,0,0,0,0,0,0,0
3,39999,12,30000,24,10000,49,9999,0.100000,0,0,0.000000,6,2.000000,0.000000,12.581281,0,0,0,0,0,0,0
3,39999,13,30000,24,10000,40,9999,0.100000,0,0,0.000000,6,0.000000,0.000000,0.549024,0,0,0,0,0,0,0
3,39999,14,30000,30,10000,49,9999,0.100000,0,0,0.000000,6,2.000000,0.000000,6.474487,0,0,0,0,0,0,0
3,39999,15,30000,30,10000,40,9999,0.100000,0,0,0.000000,6,0.000000,0.000000,2.257436,0,0,0,0,0,0,0
3,39999,16,30000,30,10000,49,9999,0.100000,0,0,0.000000,6,3.000000,0.000000,5.846256,0,0,0,0,0,0,0
3,39999,17,30000,30,10000,40,9999,0.100000,0,0,0.000000,6,0.000000,0.000000,0.579302,0,0,0,0,0,0,0
3,39999,18,30000,24,10000,40,9999,0.100000,0,0,0.000000,6,0.000000,0.000000,0.339476,0,0,0,0,0,0,0
3,39999,19,30000,30,10000,40,9999,0.100000,0,0,0.000000,6,0.000000,0.000000,0.957999,0,0,0,0,0,0,0
3,39999,20,30000,65,10000,40,9999,0.100000,0,0,0.000000,6,0.000000,0.000000,0.561462,0,0,0,0,0,0,0
3,39999,21,30000,65,10000,40,9999,0.100000,0,0,0.000000,6,0.000000,0.000000,1.026607,0,0,0,0,0,0,0
3,39999,22,30000,24,10000,40,9999,0.100000,0,0,0.000000,6,0.000000,0.000000,0.551417,0,0,0,0,0,0,0
3,39999,23,30000,52,0,40,9999,0.100000,0,0,0.000000,6,0.000000,0.000000,0.850458,0,0,0,0,0,0,0
3,39999,24,30000,16,20000,40,9999,0.100000,0,0,0.000000,6,0.000000,0.000000,1.152609,0,0,0,0,0,0,0
3,39999,25,30000,16,20000,40,9999,0.100000,0,0,0.000000,6,0.000000,0.000000,1.520506,0,0,0,0,0,0,0
3,39999,26,30000,24,10000,49,9999,0.100000,0,0,0.000000,6,1.000000,0.000000,2.710278,0,0,0,0,0,0,0
3,39999,27,30000,52,0,40,9999,0.100000,0,0,0.000000,6,0.000000,0.000000,3.915557,0,0,0,0,0,0,0
3,39999,28,30000,16,20000,40,9999,0.100000,0,0,0.000000,6,0.000000,0.000000,0.301584,0,0,0,0,0,0,0
3,39999,29,30000,52,0,40,9999,0.100000,0,0,0.000000,6,0.000000,0.000000,1.031635,0,0,0,0,0,0,0
3,39999,30,30000,52,0,40,9999,0.100000,0,0,0.000000,6,0.000000,0.000000,3.132897,0,0,0,0,0,0,0
3,39999,31,30000,13,0,40,9999,0.100000,0,0,0.000000,6,0.000000,0.000000,1.102388,0,0,0,0,0,0,0
3,39999,32,30000,30,10000,9,9999,0.100000,0,0,0.000000,6,1.000000,0.000000,2.278302,0,0,0,0,0,1,0
3,39999,33,30000,65,10000,40,9999,0.100000,0,0,0.000000,6,0.000000,0.000000,7.240319,0,0,0,0,0,0,0
3,39999,34,30000,16,20000,40,9999,0.100000,0,0,0.000000,6,0.000000,0.000000,0.210070,0,0,0,0,0,0,0
3,39999,35,30000,13,0,49,9999,0.100000,0,0,0.000000,6,2.000000,0.000000,2.692884,0,0,0,0,0,0,0
3,39999,36,30000,24,10000,49,9999,0.100000,0,0,0.000000,6,1.000000,0.000000,2.406087,0,0,0,0,0,0,0
3,39999,37,30000,52,0,40,9999,0.100000,0,0,0.000000,6,0.000000,0.000000,1.229334,0,0,0,0,0,0,0
3,39999,38,30000,65,10000,40,9999,0.100000,0,0,0.000000,6,0.000000,0.000000,0.372538,0,0,0,0,0,0,0
3,39999,39,30000,13,0,40,9999,0.100000,0,0,0.000000,6,0.000000,0.000000,1.257573,0,0,0,0,0,0,0
3,39999,40,30000,52,0,40,9999,0.100000,0,0,0.000000,6,0.000000,0.000000,0.242165,0,0,0,0,0,0,0
3,39999,41,30000,16,20000,49,9999,0.100000,0,0,0.000000,6,3.000000,0.000000,7.744081,0,0,0,0,0,0,0
3,39999,42,30000,65,10000,49,9999,0.100000,0,0,0.000000,6,1.000000,0.000000,1.175056,0,0,0,0,0,0,0
3,39999,43,30000,65,10000,49,9999,0.100000,0,0,0.000000,6,3.000000,0.000000,7.461162,0,0,0,0,0,0,0
3,39999,44,30000,52,0,49,9999,0.100000,0,0,0.000000,6,15.000000,0.000000,19.795427,0,0,0,0,0,0,0
3,39999,45,30000,30,10000,40,9999,0.100000,0,0,0.000000,6,0.000000,0.000000,2.189271,0,0,0,0,0,0,0
3,39999,46,30000,24,10000,49,9999,0.100000,0,0,0.000000,6,1.000000,0.000000,3.485166,0,0,0,0,0,0,0
3,39999,47,30000,13,0,49,9999,0.100000,0,0,0.000000,6,1.000000,0.000000,3.099532,0,0,0,0,0,0,0
3,39999,48,30000,65,10000,40,9999,0.100000,0,0,0.000000,6,0.000000,0.000000,0.639103,0,0,0,0,0,0,0
3,39999,49,30000,13,0,49,9999,0.100000,0,0,0.000000,6,1.000000,0.000000,6.326755,0,0,0,0,0,0,0
3,39999,50,30000,13,0,49,9999,0.100000,0,0,0.000000,6,1.000000,0.000000,3.650296,0,0,0,0,0,0,0
3,39999,51,30000,16,20000,40,9999,0.100000,0,0,0.000000,6,0.000000,0.000000,0.505097,0,0,0,0,0,0,0
3,39999,52,30000,52,0,40,9999,0.100000,0,0,0.000000,6,0.000000,0.000000,0.882998,0,0,0,0,0,0,0
3,39999,53,30000,16,20000,40,9999,0.100000,0,0,0.000000,6,0.000000,0.000000,0.787360,0,0,0,0,0,0,0
3,39999,54,30000,52,0,49,9999,0.100000,0,0,0.000000,6,3.000000,0.000000,10.853494,0,0,0,0,0,0,0
3,39999,55,30000,16,20000,40,9999,0.100000,0,0,0.000000,6,0.000000,0.000000,1.013863,0,0,0,0,0,0,0
3,39999,56,30000,16,20000,49,9999,0.100000,0,0,0.000000,6,3.000000,0.000000,5.944894,0,0,0,0,0,0,0
3,39999,57,30000,52,0,49,9999,0.100000,0,0,0.000000,6,1.000000,0.000000,8.845233,0,0,0,0,0,0,0
3,39999,58,30000,65,10000,40,9999,0.100000,0,0,0.000000,6,0.000000,0.000000,0.878492,0,0,0,0,0,0,0
3,39999,59,30000,16,20000,40,9999,0.100000,0,0,0.000000,6,0.000000,0.000000,1.037581,0,0,0,0,0,0,0
3,39999,60,30000,24,10000,40,9999,0.100000,0,0,0.000000,6,0.000000,0.000000,0.105111,0,0,0,0,0,0,0
3,39999,61,30000,65,10000,49,9999,0.100000,0,0,0.000000,6,1.000000,0.000000,2.157145,0,0,0,0,0,0,0
3,39999,62,30000,16,20000,49,9999,0.100000,0,0,0.000000,6,9.000000,0.000000,33.491177,0,0,0,0,0,0,0
3,39999,63,30000,13,0,40,9999,0.100000,0,0,0.000000,6,0.000000,0.000000,0.413514,0,0,0,0,0,0,0
3,39999,64,30000,16,20000,49,9999,0.100000,0,0,0.000000,6,2.000000,0.000000,7.243342,0,0,0,0,0,0,0
3,39999,65,30000,16,20000,49,9999,0.100000,0,0,0.000000,6,2.000000,0.000000,13.410894,0,0,0,0,0,0,0
3,39999,66,30000,30,10000,49,9999,0.100000,0,0,0.000000,6,1.000000,0.000000,2.113709,0,0,0,0,0,0,0
3,39999,67,30000,24,10000,49,9999,0.100000,0,0,0.000000,6,1.000000,0.000000,8.189642,0,0,0,0,0,0,0
3,39999,68,30000,30,10000,49,9999,0.100000,0,0,0.000000,6,1.000000,0.000000,2.894572,0,0,0,0,0,0,0
3,39999,69,30000,24,10000,40,9999,0.100000,0,0,0.000000,6,0.000000,0.000000,0.705779,0,0,0,0,0,0,0
3,39999,70,30000,13,0,49,9999,0.100000,0,0,0.000000,6,1.000000,0.000000,7.669286,0,0,0,0,0,0,0
3,39999,71,30000,16,20000,40,9999,0.100000,0,0,0.000000,6,0.000000,0.000000,0.291290,0,0,0,0,0,0,0
3,39999,72,30000,13,0,40,9999,0.100000,0,0,0.000000,6,0.000000,0.000000,0.286662,0,0,0,0,0,0,0
3,39999,73,30000,24,10000,40,9999,0.135000,0,0,0.000000,6,0.000000,0.000000,3.106058,0,0,0,0,0,0,0
3,39999,74,30000,24,10000,40,9999,0.100000,0,0,0.000000,6,0.000000,0.000000,2.087547,0,0,0,0,0,0,0
3,39999,75,30000,13,0,49,9999,0.100000,0,0,0.000000,6,2.000000,0.000000,7.641191,0,0,0,0,0,0,0
3,39999,76,30000,16,20000,40,9999,0.100000,0,0,0.000000,6,0.000000,0.000000,15.326621,0,0,0,0,0,0,0
3,39999,77,30000,52,0,9,9999,0.100000,0,0,0.000000,6,6.000000,0.000000,18.330894,0,0,0,0,0,0,1
3,39999,78,30000,65,10000,40,9999,0.100000,0,0,0.000000,6,0.000000,0.000000,1.920562,0,0,0,0,0,0,0
3,39999,79,30000,16,20000,40,9999,0.100000,0,0,0.000000,6,0.000000,0.000000,1.765094,0,0,0,0,0,0,0
3,39999,80,30000,16,20000,49,9999,0.100000,0,0,0.000000,6,2.000000,0.000000,7.405684,0,0,0,0,0,0,0
3,39999,81,30000,13,0,40,9999,0.100000,0,0,0.000000,6,0.000000,0.000000,2.301978,0,0,0,0,0,0,0
3,39999,82,30000,30,10000,40,9999,0.100000,0,0,0.000000,6,0.000000,0.000000,1.026899,0,0,0,0,0,0,0
3,39999,83,30000,30,10000,40,9999,0.100000,0,0,0.000000,6,0.000000,0.000000,1.438211,0,0,0,0,0,0,0
3,39999,84,30000,24,10000,49,9999,0.100000,0,0,0.000000,6,1.000000,0.000000,2.778403,0,0,0,0,0,0,0
3,39999,85,30000,30,10000,40,9999,0.135000,0,0,0.000000,6,0.000000,0.000000,0.354236,0,0,0,0,0,0,0
3,39999,86,30000,24,10000,49,9999,0.100000,0,0,0.000000,6,6.000000,0.000000,12.916960,0,0,0,0,0,0,0
3,39999,87,30000,30,10000,40,9999,0.100000,0,0,0.000000,6,0.000000,0.000000,0.724030,0,0,0,0,0,0,0
3,39999,88,30000,13,0,40,9999,0.100000,0,0,0.000000,6,0.000000,0.000000,0.605717,0,0,0,0,0,0,0
3,39999,89,30000,16,20000,40,9999,0.100000,0,0,0.000000,6,0.000000,0.000000,0.522312,0,0,0,0,0,0,0
3,39999,90,30000,65,10000,49,9999,0.100000,0,0,0.000000,6,6.000000,0.000000,13.811307,0,0,0,0,0,0,0
3,39999,91,30000,24,10000,40,9999,0.100000,0,0,0.000000,6,0.000000,0.000000,1.281311,0,0,0,0,0,0,0
3,39999,92,30000,30,10000,40,9999,0.100000,0,0,0.000000,6,0.000000,0.000000,1.454037,0,0,0,0,0,0,0
3,39999,93,30000,52,0,40,9999,0.100000,0,0,0.000000,6,0.000000,0.000000,0.103875,0,0,0,0,0,0,0
3,39999,94,30000,52,0,40,9999,0.100000,0,0,0.000000,6,0.000000,0.000000,0.793328,0,0,0,0,0,0,0
3,39999,95,30000,24,10000,49,9999,0.100000,0,0,0.000000,6,2.000000,0.000000,4.442263,0,0,0,0,0,0,0
3,39999,96,30000,16,20000,40,9999,0.100000,0,0,0.000000,6,0.000000,0.000000,0.085696,0,0,0,0,0,0,0
3,39999,97,30000,24,10000,40,9999,0.100000,0,0,0.000000,6,0.000000,0.000000,1.712608,0,0,0,0,0,0,0
3,39999,98,30000,30,10000,40,9999,0.100000,0,0,0.000000,6,0.000000,0.000000,0.443659,0,0,0,0,0,0,0
3,39999,99,30000,16,20000,40,9999,0.100000,0,0,0.000000,6,0.000000,0.000000,1.110811,0,0,0,0,0,0,0
4,49999,0,40000,16,20000,40,9999,0.100000,0,0,0.000000,6,0.000000,0.000000,1.685501,0,0,0,0,0,0,0
4,49999,1,40000,30,10000,40,9999,0.100000,0,0,0.000000,6,0.000000,0.000000,0.562717,0,0,0,0,0,0,0
4,49999,2,40000,16,20000,49,9999,0.100000,0,0,0.000000,6,1.000000,0.000000,1.332090,0,0,0,0,0,0,0
4,49999,3,40000,65,10000,40,9999,0.100000,0,0,0.000000,6,0.000000,0.000000,5.342150,0,0,0,0,0,0,0
4,49999,4,40000,24,10000,40,9999,0.100000,0,0,0.000000,6,0.000000,0.000000,1.005524,0,0,0,0,0,0,0
4,49999,5,40000,30,10000,40,9999,0.100000,0,0,0.000000,6,0.000000,0.000000,0.205864,0,0,0,0,0,0,0
4,49999,6,40000,24,10000,40,9999,0.100000,0,0,0.000000,6,0.000000,0.000000,0.875774,0,0,0,0,0,0,0
4,49999,7,40000,65,10000,40,9999,0.100000,0,0,0.000000,6,0.000000,0.000000,0.641069,0,0,0,0,0,0,0
4,49999,8,40000,30,10000,40,9999,0.100000,0,0,0.000000,6,0.000000,0.000000,0.174308,0,0,0,0,0,0,0
4,49999,9,40000,24,10000,40,9999,0.100000,0,0,0.000000,6,0.000000,0.000000,0.076977,0,0,0,0,0,0,0
4,49999,10,40000,52,0,49,9999,0.100000,0,0,0.000000,6,2.000000,0.000000,4.825693,0,0,0,0,0,0,0
4,49999,11,40000,65,10000,40,9999,0.100000,0,0,0.000000,6,0.000000,0.000000,0.852948,0,0,0,0,0,0,0
4,49999,12,40000,16,20000,40,9999,0.100000,0,0,0.000000,6,0.000000,0.000000,0.835602,0,0,0,0,0,0,0
4,49999,13,40000,16,20000,40,9999,0.100000,0,0,0.000000,6,0.000000,0.000000,0.191059,0,0,0,0,0,0,0
4,49999,14,40000,30,10000,49,9999,0.100000,0,0,0.000000,6,5.000000,0.000000,5.604650,0,0,0,0,0,0,0
4,49999,15,40000,52,0,40,9999,0.135000,0,0,0.000000,6,0.000000,0.000000,1.838293,0,0,0,0,0,0,0
4,49999,16,40000,13,0,40,9999,0.100000,0,0,0.000000,6,0.000000,0.000000,21.231712,0,0,0,0,0,0,0
4,49999,17,40000,65,10000,40,9999,0.100000,0,0,0.000000,6,0.000000,0.000000,0.483738,0,0,0,0,0,0,0
4,49999,18,40000,65,10000,49,9999,0.100000,0,0,0.000000,6,1.000000,0.000000,1.168679,0,0,0,0,0,0,0
4,49999,19,40000,30,10000,40,9999,0.100000,0,0,0.000000,6,0.000000,0.000000,0.980838,0,0,0,0,0,0,0
4,49999,20,40000,30,10000,40,9999,0.100000,0,0,0.000000,6,0.000000,0.000000,0.453000,0,0,0,0,0,0,0
4,49999,21,40000,24,10000,40,9999,0.100000,0,0,0.000000,6,0.000000,0.000000,0.969101,0,0,0,0,0,0,0
4,49999,22,40000,16,20000,40,9999,0.100000,0,0,0.000000,6,0.000000,0.000000,0.454406,0,0,0,0,0,0,0
4,49999,23,40000,16,20000,49,9999,0.100000,0,0,0.000000,6,1.000000,0.000000,3.531288,0,0,0,0,0,0,0
4,49999,24,40000,24,10000,40,9999,0.100000,0,0,0.000000,6,0.000000,0.000000,0.235856,0,0,0,0,0,0,0
4,49999,25,40000,13,0,40,9999,0.100000,0,0,0.000000,6,0.000000,0.000000,2.243804,0,0,0,0,0,0,0
4,49999,26,40000,16,20000,40,9999,0.100000,0,0,0.000000,6,0.000000,0.000000,1.341125,0,0,0,0,0,0,0
4,49999,27,40000,24,10000,40,9999,0.100000,0,0,0.000000,6,0.000000,0.000000,1.908559,0,0,0,0,0,0,0
4,49999,28,40000,24,10000,40,9999,0.100000,0,0,0.000000,6,0.000000,0.000000,0.383334,0,0,0,0,0,0,0
4,49999,29,40000,16,20000,40,9999,0.100000,0,0,0.000000,6,0.000000,0.000000,0.894717,0,0,0,0,0,0,0
4,49999,30,40000,65,10000,49,9999,0.100000,0,0,0.000000,6,1.000000,0.000000,7.559683,0,0,0,0,0,0,0
4,49999,31,40000,65,10000,40,9999,0.100000,0,0,0.000000,6,0.000000,0.000000,0.773740,0,0,0,0,0,0,0
4,49999,32,40000,16,20000,40,9999,0.100000,0,0,0.000000,6,0.000000,0.000000,0.805519,0,0,0,0,0,0,0
4,49999,33,40000,24,10000,40,9999,0.100000,0,0,0.000000,6,0.000000,0.000000,0.218291,0,0,0,0,0,0,0
4,49999,34,40000,16,20000,40,9999,0.100000,0,0,0.000000,6,0.000000,0.000000,0.198758,0,0,0,0,0,0,0
4,49999,35,40000,13,0,40,9999,0.100000,0,0,0.000000,6,0.000000,0.000000,0.237905,0,0,0,0,0,0,0
4,49999,36,40000,24,10000,49,9999,0.100000,0,0,0.000000,6,1.000000,0.000000,5.384128,0,0,0,0,0,0,0
4,49999,37,40000,30,10000,49,9999,0.100000,0,0,0.000000,6,6.000000,0.000000,12.311192,0,0,0,0,0,0,0
4,49999,38,40000,24,10000,40,9999,0.100000,0,0,0.000000,6,0.000000,0.000000,0.093411,0,0,0,0,0,0,0
4,49999,39,40000,16,20000,49,9999,0.100000,0,0,0.000000,6,1.000000,0.000000,3.889153,0,0,0,0,0,0,0
4,49999,40,40000,24,10000,40,9999,0.100000,0,0,0.000000,6,0.000000,0.000000,0.266324,0,0,0,0,0,0,0
4,49999,41,40000,30,10000,49,9999,0.100000,0,0,0.000000,6,2.000000,0.000000,5.407091,0,0,0,0,0,0,0
4,49999,42,40000,16,20000,40,9999,0.100000,0,0,0.000000,6,0.000000,0.000000,1.065495,0,0,0,0,0,0,0
4,49999,43,40000,52,0,49,9999,0.100000,0,0,0.000000,6,1.000000,0.000000,14.752915,0,0,0,0,0,0,0
4,49999,44,40000,16,20000,49,9999,0.100000,0,0,0.000000,6,1.000000,0.000000,4.683791,0,0,0,0,0,0,0
4,49999,45,40000,13,0,49,9999,0.100000,0,0,0.000000,6,2.000000,0.000000,2.518221,0,0,0,0,0,0,0
4,49999,46,40000,30,10000,40,9999,0.100000,0,0,0.000000,6,0.000000,0.000000,1.594605,0,0,0,0,0,0,0
4,49999,47,40000,13,0,40,9999,0.100000,0,0,0.000000,6,0.000000,0.000000,5.390313,0,0,0,0,0,0,0
4,49999,48,40000,52,0,40,9999,0.100000,0,0,0.000000,6,0.000000,0.000000,1.029776,0,0,0,0,0,0,0
4,49999,49,40000,13,0,40,9999,0.100000,0,0,0.000000,6,0.000000,0.000000,1.202656,0,0,0,0,0,0,0
4,49999,50,40000,65,10000,49,9999,0.100000,0,0,0.000000,6,2.000000,0.000000,14.940254,0,0,0,0,0,0,0
4,49999,51,40000,13,0,40,9999,0.100000,0,0,0.000000,6,0.000000,0.000000,0.437494,0,0,0,0,0,0,0
4,49999,52,40000,13,0,49,9999,0.100000,0,0,0.000000,6,6.000000,0.000000,17.139868,0,0,0,0,0,0,0
4,49999,53,40000,16,20000,40,9999,0.100000,0,0,0.000000,6,0.000000,0.000000,0.793786,0,0,0,0,0,0,0
4,49999,54,40000,52,0,49,9999,0.100000,0,0,0.000000,6,1.000000,0.000000,9.115093,0,0,0,0,0,0,0
4,49999,55,40000,52,0,40,9999,0.100000,0,0,0.000000,6,0.000000,0.000000,1.002638,0,0,0,0,0,0,0
4,49999,56,40000,24,10000,49,9999,0.100000,0,0,0.000000,6,1.000000,0.000000,10.231602,0,0,0,0,0,0,0
4,49999,57,40000,13,0,49,9999,0.100000,0,0,0.000000,6,1.000000,0.000000,4.498064,0,0,0,0,0,0,0
4,49999,58,40000,30,10000,40,9999,0.100000,0,0,0.000000,6,0.000000,0.000000,0.753389,0,0,0,0,0,0,0
4,49999,59,40000,13,0,40,9999,0.100000,0,0,0.000000,6,0.000000,0.000000,0.742570,0,0,0,0,0,0,0
4,49999,60,40000,52,0,49,9999,0.100000,0,0,0.000000,6,2.000000,0.000000,4.897137,0,0,0,0,0,0,0
4,49999,61,40000,24,10000,40,9999,0.100000,0,0,0.000000,6,0.000000,0.000000,0.991584,0,0,0,0,0,0,0
4,49999,62,40000,16,20000,49,9999,0.100000,0,0,0.000000,6,11.000000,0.000000,29.942058,0,0,0,0,0,0,0
4,49999,63,40000,16,20000,40,9999,0.100000,0,0,0.000000,6,0.000000,0.000000,0.085404,0,0,0,0,0,0,0
4,49999,64,40000,52,0,40,9999,0.100000,0,0,0.000000,6,0.000000,0.000000,0.909159,0,0,0,0,0,0,0
4,49999,65,40000,16,20000,49,9999,0.100000,0,0,0.000000,6,4.000000,0.000000,12.249051,0,0,0,0,0,0,0
4,49999,66,40000,65,10000,49,9999,0.100000,0,0,0.000000,6,1.000000,0.000000,4.342317,0,0,0,0,0,0,0
4,49999,67,40000,16,20000,49,9999,0.100000,0,0,0.000000,6,2.000000,0.000000,11.022725,0,0,0,0,0,0,0
4,49999,68,40000,13,0,40,9999,0.100000,0,0,0.000000,6,0.000000,0.000000,0.100498,0,0,0,0,0,0,0
4,49999,69,40000,65,10000,49,9999,0.100000,0,0,0.000000,6,1.000000,0.000000,4.395771,0,0,0,0,0,0,0
4,49999,70,40000,30,10000,40,9999,0.100000,0,0,0.000000,6,0.000000,0.000000,3.545113,0,0,0,0,0,0,0
4,49999,71,40000,16,20000,49,9999,0.100000,0,0,0.000000,6,1.000000,0.000000,1.217687,0,0,0,0,0,0,0
4,49999,72,40000,13,0,40,9999,0.100000,0,0,0.000000,6,0.000000,0.000000,0.290338,0,0,0,0,0,0,0
4,49999,73,40000,16,20000,49,9999,0.100000,0,0,0.000000,6,1.000000,0.000000,10.241853,0,0,0,0,0,0,0
4,49999,74,40000,13,0,40,9999,0.100000,0,0,0.000000,6,0.000000,0.000000,0.802331,0,0,0,0,0,0,0
4,49999,75,40000,65,10000,49,9999,0.100000,0,0,0.000000,6,1.000000,0.000000,4.631707,0,0,0,0,0,0,0
4,49999,76,40000,30,10000,49,9999,0.100000,0,0,0.000000,6,1.000000,0.000000,1.251903,0,0,0,0,0,0,0
4,49999,77,40000,52,0,40,9999,0.100000,0,0,0.000000,6,0.000000,0.000000,1.020035,0,0,0,0,0,0,0
4,49999,78,40000,30,10000,40,9999,0.100000,0,0,0.000000,6,0.000000,0.000000,1.402489,0,0,0,0,0,0,0
4,49999,79,40000,30,10000,9,9999,0.100000,0,0,0.000000,6,6.000000,0.000000,14.728033,0,0,0,0,0,0,1
4,49999,80,40000,16,20000,9,9999,0.135000,0,0,0.000000,6,1.000000,0.000000,3.600916,0,0,0,0,0,0,1
4,49999,81,40000,52,0,40,9999,0.100000,0,0,0.000000,6,0.000000,0.000000,2.748909,0,0,0,0,0,0,0
4,49999,82,40000,52,0,40,9999,0.100000,0,0,0.000000,6,0.000000,0.000000,0.862451,0,0,0,0,0,0,0
4,49999,83,40000,16,20000,49,9999,0.100000,0,0,0.000000,6,2.000000,0.000000,4.265671,0,0,0,0,0,0,0
4,49999,84,40000,13,0,40,9999,0.100000,0,0,0.000000,6,0.000000,0.000000,0.980697,0,0,0,0,0,0,0
4,49999,85,40000,52,0,40,9999,0.100000,0,0,0.000000,6,0.000000,0.000000,0.247893,0,0,0,0,0,0,0
4,49999,86,40000,52,0,40,9999,0.100000,0,0,0.000000,6,0.000000,0.000000,0.402103,0,0,0,0,0,0,0
4,49999,87,40000,65,10000,40,9999,0.100000,0,0,0.000000,6,0.000000,0.000000,0.507725,0,0,0,0,0,0,0
4,49999,88,40000,30,10000,40,9999,0.100000,0,0,0.000000,6,0.000000,0.000000,0.431119,0,0,0,0,0,0,0
4,49999,89,40000,52,0,40,9999,0.100000,0,0,0.000000,6,0.000000,0.000000,0.412769,0,0,0,0,0,0,0
4,49999,90,40000,16,20000,40,9999,0.100000,0,0,0.000000,6,0.000000,0.000000,0.770579,0,0,0,0,0,0,0
4,49999,91,40000,65,10000,40,9999,0.100000,0,0,0.000000,6,0.000000,0.000000,0.560109,0,0,0,0,0,0,0
4,49999,92,40000,30,10000,40,9999,0.100000,0,0,0.000000,6,0.000000,0.000000,0.416608,0,0,0,0,0,0,0
4,49999,93,40000,52,0,40,9999,0.100000,0,0,0.000000,6,0.000000,0.000000,0.088981,0,0,0,0,0,0,0
4,49999,94,40000,13,0,49,9999,0.100000,0,0,0.000000,6,2.000000,0.000000,2.504591,0,0,0,0,0,0,0
4,49999,95,40000,65,10000,40,9999,0.100000,0,0,0.000000,6,0.000000,0.000000,0.130487,0,0,0,0,0,0,0
4,49999,96,40000,65,10000,40,9999,0.100000,0,0,0.000000,6,0.000000,0.000000,0.078745,0,0,0,0,0,0,0
4,49999,97,40000,65,10000,40,9999,0.100000,0,0,0.000000,6,0.000000,0.000000,1.011313,0,0,0,0,0,0,0
4,49999,98,40000,65,10000,40,9999,0.100000,0,0,0.000000,6,0.000000,0.000000,0.520244,0,0,0,0,0,0,0
4,49999,99,40000,24,10000,40,9999,0.100000,0,0,0.000000,6,0.000000,0.000000,1.662045,0,0,0,0,0,0,0
5,59999,0,50000,24,10000,40,9999,0.100000,0,0,0.000000,6,0.000000,0.000000,3.367155,0,0,0,0,0,0,0
5,59999,1,50000,16,20000,40,9999,0.100000,0,0,0.000000,6,0.000000,0.000000,0.569757,0,0,0,0,0,0,0
5,59999,2,50000,16,20000,49,9999,0.100000,0,0,0.000000,6,1.000000,0.000000,1.266873,0,0,0,0,0,0,0
5,59999,3,50000,52,0,40,9999,0.100000,0,0,0.000000,6,0.000000,0.000000,0.123557,0,0,0,0,0,0,0
5,59999,4,50000,16,20000,40,9999,0.100000,0,0,0.000000,6,0.000000,0.000000,1.013628,0,0,0,0,0,0,0
5,59999,5,50000,65,10000,40,9999,0.100000,0,0,0.000000,6,0.000000,0.000000,0.110750,0,0,0,0,0,0,0
5,59999,6,50000,13,0,40,9999,0.100000,0,0,0.000000,6,0.000000,0.000000,0.763458,0,0,0,0,0,0,0
5,59999,7,50000,16,20000,40,9999,0.100000,0,0,0.000000,6,0.000000,0.000000,0.669330,0,0,0,0,0,0,0
5,59999,8,50000,30,10000,40,9999,0.100000,0,0,0.000000,6,0.000000,0.000000,0.172524,0,0,0,0,0,0,0
5,59999,9,50000,30,10000,40,9999,0.100000,0,0,0.000000,6,0.000000,0.000000,0.078945,0,0,0,0,0,0,0
5,59999,10,50000,65,10000,49,9999,0.100000,0,0,0.000000,6,2.000000,0.000000,10.929966,0,0,0,0,0,0,0
5,59999,11,50000,30,10000,40,9999,0.100000,0,0,0.000000,6,0.000000,0.000000,3.392705,0,0,0,0,0,0,0
5,59999,12,50000,24,10000,40,9999,0.100000,0,0,0.000000,6,0.000000,0.000000,0.243023,0,0,0,0,0,0,0
5,59999,13,50000,24,10000,40,9999,0.100000,0,0,0.000000,6,0.000000,0.000000,0.214835,0,0,0,0,0,0,0
5,59999,14,50000,30,10000,40,9999,0.100000,0,0,0.000000,6,0.000000,0.000000,0.196459,0,0,0,0,0,0,0
5,59999,15,50000,13,0,40,9999,0.100000,0,0,0.000000,6,0.000000,0.000000,2.453817,0,0,0,0,0,0,0
5,59999,16,50000,30,10000,49,9999,0.100000,0,0,0.000000,6,10.000000,0.000000,14.010537,0,0,0,0,0,0,0
5,59999,17,50000,65,10000,40,9999,0.100000,0,0,0.000000,6,0.000000,0.000000,0.381996,0,0,0,0,0,0,0
5,59999,18,50000,30,10000,40,9999,0.100000,0,0,0.000000,6,0.000000,0.000000,1.033307,0,0,0,0,0,0,0
5,59999,19,50000,24,10000,40,9999,0.100000,0,0,0.000000,6,0.000000,0.000000,1.010526,0,0,0,0,0,0,0
5,59999,20,50000,13,0,40,9999,0.100000,0,0,0.000000,6,0.000000,0.000000,0.369384,0,0,0,0,0,0,0
5,59999,21,50000,13,0,40,9999,0.100000,0,0,0.000000,6,0.000000,0.000000,0.975273,0,0,0,0,0,0,0
5,59999,22,50000,52,0,40,9999,0.100000,0,0,0.000000,6,0.000000,0.000000,0.361160,0,0,0,0,0,0,0
5,59999,23,50000,30,10000,49,9999,0.100000,0,0,0.000000,6,1.000000,0.000000,7.303791,0,0,0,0,0,0,0
5,59999,24,50000,30,10000,40,9999,0.100000,0,0,0.000000,6,0.000000,0.000000,0.199400,0,0,0,0,0,0,0
5,59999,25,50000,13,0,40,9999,0.100000,0,0,0.000000,6,0.000000,0.000000,1.865799,0,0,0,0,0,0,0
5,59999,26,50000,52,0,40,9999,0.100000,0,0,0.000000,6,0.000000,0.000000,0.707075,0,0,0,0,0,0,0
5,59999,27,50000,24,10000,40,9999,0.100000,0,0,0.000000,6,0.000000,0.000000,5.134988,0,0,0,0,0,0,0
5,59999,28,50000,65,10000,40,9999,0.100000,0,0,0.000000,6,0.000000,0.000000,0.473481,0,0,0,0,0,0,0
5,59999,29,50000,65,10000,40,9999,0.100000,0,0,0.000000,6,0.000000,0.000000,2.370188,0,0,0,0,0,0,0
5,59999,30,50000,13,0,40,9999,0.100000,0,0,0.000000,6,0.000000,0.000000,0.124183,0,0,0,0,0,0,0
5,59999,31,50000,24,10000,40,9999,0.100000,0,0,0.000000,6,0.000000,0.000000,0.474524,0,0,0,0,0,0,0
5,59999,32,50000,24,10000,49,9999,0.100000,0,0,0.000000,6,1.000000,0.000000,2.926734,0,0,0,0,0,0,0
5,59999,33,50000,24,10000,40,9999,0.100000,0,0,0.000000,6,0.000000,0.000000,0.168556,0,0,0,0,0,0,0
5,59999,34,50000,13,0,40,9999,0.100000,0,0,0.000000,6,0.000000,0.000000,0.832925,0,0,0,0,0,0,0
5,59999,35,50000,16,20000,40,9999,0.100000,0,0,0.000000,6,0.000000,0.000000,0.229237,0,0,0,0,0,0,0
5,59999,36,50000,16,20000,49,9999,0.100000,0,0,0.000000,6,2.000000,0.000000,8.775077,0,0,0,0,0,0,0
5,59999,37,50000,65,10000,40,9999,0.100000,0,0,0.000000,6,0.000000,0.000000,0.482460,0,0,0,0,0,0,0
5,59999,38,50000,65,10000,40,9999,0.100000,0,0,0.000000,6,0.000000,0.000000,0.104843,0,0,0,0,0,0,0
5,59999,39,50000,65,10000,40,9999,0.100000,0,0,0.000000,6,0.000000,0.000000,0.887336,0,0,0,0,0,0,0
5,59999,40,50000,16,20000,40,9999,0.100000,0,0,0.000000,6,0.000000,0.000000,0.209718,0,0,0,0,0,0,0
5,59999,41,50000,65,10000,49,9999,0.100000,0,0,0.000000,6,1.000000,0.000000,7.522556,0,0,0,0,0,0,0
5,59999,42,50000,30,10000,40,9999,0.100000,0,0,0.000000,6,0.000000,0.000000,0.399994,0,0,0,0,0,0,0
5,59999,43,50000,52,0,40,9999,0.100000,0,0,0.000000,6,0.000000,0.000000,6.495100,0,0,0,0,0,0,0
5,59999,44,50000,13,0,49,9999,0.100000,0,0,0.000000,6,2.000000,0.000000,3.316643,0,0,0,0,0,0,0
5,59999,45,50000,13,0,40,9999,0.100000,0,0,0.000000,6,0.000000,0.000000,0.418221,0,0,0,0,0,0,0
5,59999,46,50000,13,0,49,9999,0.100000,0,0,0.000000,6,8.000000,0.000000,18.058166,0,0,0,0,0,0,0
5,59999,47,50000,13,0,49,9999,0.100000,0,0,0.000000,6,1.000000,0.000000,4.994034,0,0,0,0,0,0,0
5,59999,48,50000,16,20000,40,9999,0.100000,0,0,0.000000,6,0.000000,0.000000,0.190022,0,0,0,0,0,0,0
5,59999,49,50000,65,10000,40,9999,0.100000,0,0,0.000000,6,0.000000,0.000000,4.538828,0,0,0,0,0,0,0
5,59999,50,50000,30,10000,49,9999,0.100000,0,0,0.000000,6,2.000000,0.000000,10.933204,0,0,0,0,0,0,0
5,59999,51,50000,30,10000,40,9999,0.100000,0,0,0.000000,6,0.000000,0.000000,0.355426,0,0,0,0,0,0,0
5,59999,52,50000,16,20000,40,9999,0.100000,0,0,0.000000,6,0.000000,0.000000,0.279767,0,0,0,0,0,0,0
5,59999,53,50000,16,20000,40,9999,0.100000,0,0,0.000000,6,0.000000,0.000000,0.865558,0,0,0,0,0,0,0
5,59999,54,50000,13,0,49,9999,0.100000,0,0,0.000000,6,4.000000,0.000000,6.539351,0,0,0,0,0,0,0
5,59999,55,50000,16,20000,40,9999,0.100000,0,0,0.000000,6,0.000000,0.000000,1.461455,0,0,0,0,0,0,0
5,59999,56,50000,16,20000,40,9999,0.100000,0,0,0.000000,6,0.000000,0.000000,0.413432,0,0,0,0,0,0,0
5,59999,57,50000,30,10000,49,9999,0.100000,0,0,0.000000,6,2.000000,0.000000,2.890537,0,0,0,0,0,0,0
5,59999,58,50000,65,10000,40,9999,0.100000,0,0,0.000000,6,0.000000,0.000000,0.842310,0,0,0,0,0,0,0
5,59999,59,50000,24,10000,40,9999,0.100000,0,0,0.000000,6,0.000000,0.000000,1.811584,0,0,0,0,0,0,0
5,59999,60,50000,13,0,49,9999,0.100000,0,0,0.000000,6,2.000000,0.000000,4.948114,0,0,0,0,0,0,0
5,59999,61,50000,16,20000,40,9999,0.100000,0,0,0.000000,6,0.000000,0.000000,1.004460,0,0,0,0,0,0,0
5,59999,62,50000,16,20000,49,9999,0.100000,0,0,0.000000,6,1.000000,0.000000,6.911752,0,0,0,0,0,0,0
5,59999,63,50000,24,10000,40,9999,0.100000,0,0,0.000000,6,0.000000,0.000000,0.074073,0,0,0,0,0,0,0
5,59999,64,50000,24,10000,40,9999,0.100000,0,0,0.000000,6,0.000000,0.000000,0.792738,0,0,0,0,0,0,0
5,59999,65,50000,24,10000,49,9999,0.100000,0,0,0.000000,6,5.000000,0.000000,14.052506,0,0,0,0,0,0,0
5,59999,66,50000,16,20000,49,9999,0.100000,0,0,0.000000,6,1.000000,0.000000,4.026129,0,0,0,0,0,0,0
5,59999,67,50000,52,0,49,9999,0.100000,0,0,0.000000,6,3.000000,0.000000,11.351240,0,0,0,0,0,0,0
5,59999,68,50000,13,0,40,9999,0.100000,0,0,0.000000,6,0.000000,0.000000,0.102901,0,0,0,0,0,0,0
5,59999,69,50000,52,0,49,9999,0.100000,0,0,0.000000,6,3.000000,0.000000,14.824357,0,0,0,0,0,0,0
5,59999,70,50000,30,10000,40,9999,0.100000,0,0,0.000000,6,0.000000,0.000000,6.259012,0,0,0,0,0,0,0
5,59999,71,50000,16,20000,49,9999,0.100000,0,0,0.000000,6,1.000000,0.000000,2.055218,0,0,0,0,0,0,0
5,59999,72,50000,24,10000,40,9999,0.100000,0,0,0.000000,6,0.000000,0.000000,0.243223,0,0,0,0,0,0,0
5,59999,73,50000,30,10000,49,9999,0.100000,0,0,0.000000,6,1.000000,0.000000,6.297410,0,0,0,0,0,0,0
5,59999,74,50000,13,0,49,9999,0.100000,0,0,0.000000,6,1.000000,0.000000,2.393262,0,0,0,0,0,0,0
5,59999,75,50000,30,10000,40,9999,0.100000,0,0,0.000000,6,0.000000,0.000000,0.387038,0,0,0,0,0,0,0
5,59999,76,50000,24,10000,49,9999,0.100000,0,0,0.000000,6,1.000000,0.000000,1.147772,0,0,0,0,0,0,0
5,59999,77,50000,30,10000,49,9999,0.100000,0,0,0.000000,6,1.000000,0.000000,2.499235,0,0,0,0,0,0,0
5,59999,78,50000,65,10000,40,9999,0.100000,0,0,0.000000,6,0.000000,0.000000,0.773672,0,0,0,0,0,0,0
5,59999,79,50000,30,10000,40,9999,0.100000,0,0,0.000000,6,0.000000,0.000000,6.552506,0,0,0,0,0,0,0
5,59999,80,50000,52,0,40,9999,0.100000,0,0,0.000000,6,0.000000,0.000000,11.837306,0,0,0,0,0,0,0
5,59999,81,50000,65,10000,40,9999,0.100000,0,0,0.000000,6,0.000000,0.000000,2.819752,0,0,0,0,0,0,0
5,59999,82,50000,24,10000,40,9999,0.100000,0,0,0.000000,6,0.000000,0.000000,2.967780,0,0,0,0,0,0,0
5,59999,83,50000,16,20000,40,9999,0.100000,0,0,0.000000,6,0.000000,0.000000,0.986411,0,0,0,0,0,0,0
5,59999,84,50000,30,10000,40,9999,0.100000,0,0,0.000000,6,0.000000,0.000000,0.594774,0,0,0,0,0,0,0
5,59999,85,50000,13,0,40,9999,0.100000,0,0,0.000000,6,0.000000,0.000000,1.731055,0,0,0,0,0,0,0
5,59999,86,50000,52,0,49,9999,0.100000,0,0,0.000000,6,5.000000,0.000000,12.761100,0,0,0,0,0,0,0
5,59999,87,50000,65,10000,40,9999,0.100000,0,0,0.000000,6,0.000000,0.000000,0.515258,0,0,0,0,0,0,0
5,59999,88,50000,52,0,40,9999,0.100000,0,0,0.000000,6,0.000000,0.000000,0.913361,0,0,0,0,0,0,0
5,59999,89,50000,30,10000,40,9999,0.100000,0,0,0.000000,6,0.000000,0.000000,0.306205,0,0,0,0,0,0,0
5,59999,90,50000,52,0,40,9999,0.100000,0,0,0.000000,6,0.000000,0.000000,0.644607,0,0,0,0,0,0,0
5,59999,91,50000,65,10000,40,9999,0.100000,0,0,0.000000,6,0.000000,0.000000,0.392104,0,0,0,0,0,0,0
5,59999,92,50000,65,10000,49,9999,0.100000,0,0,0.000000,6,6.000000,0.000000,12.474499,0,0,0,0,0,0,0
5,59999,93,50000,13,0,40,9999,0.100000,0,0,0.000000,6,0.000000,0.000000,0.102274,0,0,0,0,0,0,0
5,59999,94,50000,16,20000,40,9999,0.100000,0,0,0.000000,6,0.000000,0.000000,0.272895,0,0,0,0,0,0,0
5,59999,95,50000,13,0,40,9999,0.100000,0,0,0.000000,6,0.000000,0.000000,0.118276,0,0,0,0,0,0,0
5,59999,96,50000,52,0,40,9999,0.100000,0,0,0.000000,6,0.000000,0.000000,0.088125,0,0,0,0,0,0,0
5,59999,97,50000,65,10000,40,9999,0.100000,0,0,0.000000,6,0.000000,0.000000,0.781808,0,0,0,0,0,0,0
5,59999,98,50000,65,10000,40,9999,0.100000,0,0,0.000000,6,0.000000,0.000000,0.528914,0,0,0,0,0,0,0
5,59999,99,50000,52,0,40,9999,0.100000,0,0,0.000000,6,0.000000,0.000000,0.613064,0,0,0,0,0,0,0
6,69999,0,60000,30,10000,49,9999,0.100000,0,0,0.000000,6,1.000000,0.000000,1.620841,0,0,0,0,0,0,0
6,69999,1,60000,30,10000,40,9999,0.100000,0,0,0.000000,6,0.000000,0.000000,0.528035,0,0,0,0,0,0,0
6,69999,2,60000,24,10000,49,9999,0.100000,0,0,0.000000,6,5.000000,0.000000,6.894519,0,0,0,0,0,0,0
6,69999,3,60000,30,10000,40,9999,0.100000,0,0,0.000000,6,0.000000,0.000000,0.096800,0,0,0,0,0,0,0
6,69999,4,60000,16,20000,49,9999,0.100000,0,0,0.000000,6,2.000000,0.000000,5.033569,0,0,0,0,0,0,0
6,69999,5,60000,65,10000,40,9999,0.100000,0,0,0.000000,6,0.000000,0.000000,0.094022,0,0,0,0,0,0,0
6,69999,6,60000,13,0,40,9999,0.100000,0,0,0.000000,6,0.000000,0.000000,0.701828,0,0,0,0,0,0,0
6,69999,7,60000,13,0,40,9999,0.100000,0,0,0.000000,6,0.000000,0.000000,0.692885,0,0,0,0,0,0,0
6,69999,8,60000,16,20000,40,9999,0.100000,0,0,0.000000,6,0.000000,0.000000,0.166973,0,0,0,0,0,0,0
6,69999,9,60000,30,10000,40,9999,0.100000,0,0,0.000000,6,0.000000,0.000000,0.069792,0,0,0,0,0,0,0
6,69999,10,60000,16,20000,40,9999,0.100000,0,0,0.000000,6,0.000000,0.000000,1.399567,0,0,0,0,0,0,0
6,69999,11,60000,65,10000,49,9999,0.100000,0,0,0.000000,6,2.000000,0.000000,8.780696,0,0,0,0,0,0,0
6,69999,12,60000,24,10000,40,9999,0.100000,0,0,0.000000,6,0.000000,0.000000,0.363106,0,0,0,0,0,0,0
6,69999,13,60000,52,0,40,9999,0.100000,0,0,0.000000,6,0.000000,0.000000,0.193564,0,0,0,0,0,0,0
6,69999,14,60000,24,10000,40,9999,0.100000,0,0,0.000000,6,0.000000,0.000000,0.197547,0,0,0,0,0,0,0
6,69999,15,60000,13,0,40,9999,0.100000,0,0,0.000000,6,0.000000,0.000000,24.353859,0,0,0,0,0,0,0
6,69999,16,60000,24,10000,49,9999,0.100000,0,0,0.000000,6,1.000000,0.000000,4.071883,0,0,0,0,0,0,0
6,69999,17,60000,30,10000,40,9999,0.100000,0,0,0.000000,6,0.000000,0.000000,0.311555,0,0,0,0,0,0,0
6,69999,18,60000,24,10000,49,9999,0.100000,0,0,0.000000,6,1.000000,0.000000,6.110221,0,0,0,0,0,0,0
6,69999,19,60000,24,10000,40,9999,0.100000,0,0,0.000000,6,0.000000,0.000000,1.247804,0,0,0,0,0,0,0
6,69999,20,60000,52,0,40,9999,0.100000,0,0,0.000000,6,0.000000,0.000000,0.337023,0,0,0,0,0,0,0
6,69999,21,60000,24,10000,40,9999,0.100000,0,0,0.000000,6,0.000000,0.000000,0.773352,0,0,0,0,0,0,0
6,69999,22,60000,13,0,40,9999,0.100000,0,0,0.000000,6,0.000000,0.000000,0.326914,0,0,0,0,0,0,0
6,69999,23,60000,65,10000,40,9999,0.100000,0,0,0.000000,6,0.000000,0.000000,1.529231,0,0,0,0,0,0,0
6,69999,24,60000,52,0,40,9999,0.100000,0,0,0.000000,6,0.000000,0.000000,0.229437,0,0,0,0,0,0,0
6,69999,25,60000,16,20000,40,9999,0.100000,0,0,0.000000,6,0.000000,0.000000,1.240773,0,0,0,0,0,0,0
6,69999,26,60000,65,10000,49,9999,0.100000,0,0,0.000000,6,1.000000,0.000000,3.107481,0,0,0,0,0,0,0
6,69999,27,60000,30,10000,40,9999,0.100000,0,0,0.000000,6,0.000000,0.000000,4.286679,0,0,0,0,0,0,0
6,69999,28,60000,65,10000,40,9999,0.100000,0,0,0.000000,6,0.000000,0.000000,0.404816,0,0,0,0,0,0,0
6,69999,29,60000,52,0,49,9999,0.100000,0,0,0.000000,6,2.000000,0.000000,8.905591,0,0,0,0,0,0,0
6,69999,30,60000,16,20000,40,9999,0.100000,0,0,0.000000,6,0.000000,0.000000,0.087989,0,0,0,0,0,0,0
6,69999,31,60000,16,20000,40,9999,0.100000,0,0,0.000000,6,0.000000,0.000000,0.664608,0,0,0,0,0,0,0
6,69999,32,60000,24,10000,9,9999,0.100000,0,0,0.000000,6,1.000000,0.000000,1.438286,0,0,0,0,0,1,0
6,69999,33,60000,24,10000,40,9999,0.100000,0,0,0.000000,6,0.000000,0.000000,0.131716,0,0,0,0,0,0,0
6,69999,34,60000,16,20000,40,9999,0.100000,0,0,0.000000,6,0.000000,0.000000,0.860385,0,0,0,0,0,0,0
6,69999,35,60000,13,0,40,9999,0.100000,0,0,0.000000,6,0.000000,0.000000,0.228469,0,0,0,0,0,0,0
6,69999,36,60000,65,10000,49,9999,0.100000,0,0,0.000000,6,1.000000,0.000000,12.399852,0,0,0,0,0,0,0
6,69999,37,60000,30,10000,40,9999,0.100000,0,0,0.000000,6,0.000000,0.000000,1.481892,0,0,0,0,0,0,0
6,69999,38,60000,65,10000,40,9999,0.100000,0,0,0.000000,6,0.000000,0.000000,0.105690,0,0,0,0,0,0,0
6,69999,39,60000,30,10000,40,9999,0.100000,0,0,0.000000,6,0.000000,0.000000,5.898004,0,0,0,0,0,0,0
6,69999,40,60000,13,0,40,9999,0.100000,0,0,0.000000,6,0.000000,0.000000,0.230773,0,0,0,0,0,0,0
6,69999,41,60000,16,20000,40,9999,0.100000,0,0,0.000000,6,0.000000,0.000000,0.975313,0,0,0,0,0,0,0
6,69999,42,60000,52,0,40,9999,0.100000,0,0,0.000000,6,0.000000,0.000000,0.209975,0,0,0,0,0,0,0
6,69999,43,60000,24,10000,40,9999,0.100000,0,0,0.000000,6,0.000000,0.000000,0.107460,0,0,0,0,0,0,0
6,69999,44,60000,30,10000,49,9999,0.100000,0,0,0.000000,6,2.000000,0.000000,3.766386,0,0,0,0,0,0,0
6,69999,45,60000,52,0,40,9999,0.100000,0,0,0.000000,6,0.000000,0.000000,2.652819,0,0,0,0,0,0,0
6,69999,46,60000,30,10000,9,9999,0.100000,0,0,0.000000,6,1.000000,0.000000,1.510093,0,0,0,0,0,1,0
6,69999,47,60000,30,10000,40,9999,0.100000,0,0,0.000000,6,0.000000,0.000000,3.732859,0,0,0,0,0,0,0
6,69999,48,60000,30,10000,40,9999,0.100000,0,0,0.000000,6,0.000000,0.000000,0.394726,0,0,0,0,0,0,0
6,69999,49,60000,52,0,49,9999,0.100000,0,0,0.000000,6,1.000000,0.000000,6.033351,0,0,0,0,0,0,0
6,69999,50,60000,30,10000,49,9999,0.100000,0,0,0.000000,6,1.000000,0.000000,7.328730,0,0,0,0,0,0,0
6,69999,51,60000,16,20000,40,9999,0.100000,0,0,0.000000,6,0.000000,0.000000,0.406479,0,0,0,0,0,0,0
6,69999,52,60000,65,10000,40,9999,0.100000,0,0,0.000000,6,0.000000,0.000000,0.935000,0,0,0,0,0,0,0
6,69999,53,60000,13,0,40,9999,0.100000,0,0,0.000000,6,0.000000,0.000000,0.740403,0,0,0,0,0,0,0
6,69999,54,60000,52,0,49,9999,0.100000,0,0,0.000000,6,2.000000,0.000000,9.583737,0,0,0,0,0,0,0
6,69999,55,60000,13,0,49,9999,0.100000,0,0,0.000000,6,7.000000,0.000000,10.446099,0,0,0,0,0,0,0
6,69999,56,60000,13,0,49,9999,0.100000,0,0,0.000000,6,8.000000,0.000000,17.301315,0,0,0,0,0,0,0
6,69999,57,60000,16,20000,49,9999,0.100000,0,0,0.000000,6,2.000000,0.000000,3.097841,0,0,0,0,0,0,0
6,69999,58,60000,30,10000,40,9999,0.100000,0,0,0.000000,6,0.000000,0.000000,0.856840,0,0,0,0,0,0,0
6,69999,59,60000,52,0,49,9999,0.100000,0,0,0.000000,6,2.000000,0.000000,12.512179,0,0,0,0,0,0,0
6,69999,60,60000,13,0,40,9999,0.100000,0,0,0.000000,6,0.000000,0.000000,0.117742,0,0,0,0,0,0,0
6,69999,61,60000,16,20000,40,9999,0.100000,0,0,0.000000,6,0.000000,0.000000,1.020550,0,0,0,0,0,0,0
6,69999,62,60000,52,0,40,9999,0.100000,0,0,0.000000,6,0.000000,0.000000,1.009795,0,0,0,0,0,0,0
6,69999,63,60000,65,10000,40,9999,0.100000,0,0,0.000000,6,0.000000,0.000000,0.078035,0,0,0,0,0,0,0
6,69999,64,60000,13,0,49,9999,0.100000,0,0,0.000000,6,1.000000,0.000000,1.673684,0,0,0,0,0,0,0
6,69999,65,60000,13,0,40,9999,0.100000,0,0,0.000000,6,0.000000,0.000000,2.531266,0,0,0,0,0,0,0
6,69999,66,60000,52,0,9,9999,0.100000,0,0,0.000000,6,1.000000,0.000000,1.510184,0,0,0,0,0,2,0
6,69999,67,60000,65,10000,40,9999,0.065000,0,0,0.000000,6,0.000000,0.000000,0.825547,0,0,0,0,0,0,0
6,69999,68,60000,65,10000,40,9999,0.100000,0,0,0.000000,6,0.000000,0.000000,0.102691,0,0,0,0,0,0,0
6,69999,69,60000,24,10000,40,9999,0.100000,0,0,0.000000,6,0.000000,0.000000,4.742066,0,0,0,0,0,0,0
6,69999,70,60000,16,20000,49,9999,0.100000,0,0,0.000000,6,1.000000,0.000000,13.670712,0,0,0,0,0,0,0
6,69999,71,60000,13,0,40,9999,0.100000,0,0,0.000000,6,0.000000,0.000000,3.710354,0,0,0,0,0,0,0
6,69999,72,60000,13,0,40,9999,0.100000,0,0,0.000000,6,0.000000,0.000000,0.284815,0,0,0,0,0,0,0
6,69999,73,60000,65,10000,49,9999,0.100000,0,0,0.000000,6,5.000000,0.000000,16.544883,0,0,0,0,0,0,0
6,69999,74,60000,30,10000,40,9999,0.100000,0,0,0.000000,6,0.000000,0.000000,0.925291,0,0,0,0,0,0,0
6,69999,75,60000,13,0,40,9999,0.100000,0,0,0.000000,6,0.000000,0.000000,0.391272,0,0,0,0,0,0,0
6,69999,76,60000,30,10000,40,9999,0.100000,0,0,0.000000,6,0.000000,0.000000,4.455265,0,0,0,0,0,0,0
6,69999,77,60000,52,0,9,9999,0.100000,0,0,0.000000,6,1.000000,0.000000,1.665536,0,0,0,0,0,2,0
6,69999,78,60000,13,0,40,9999,0.100000,0,0,0.000000,6,0.000000,0.000000,0.758941,0,0,0,0,0,0,0
6,69999,79,60000,13,0,49,9999,0.100000,0,0,0.000000,6,3.000000,0.000000,23.512990,0,0,0,0,0,0,0
6,69999,80,60000,30,10000,49,9999,0.100000,0,0,0.000000,6,2.000000,0.000000,9.744382,0,0,0,0,0,0,0
6,69999,81,60000,65,10000,40,9999,0.100000,0,0,0.000000,6,0.000000,0.000000,3.650887,0,0,0,0,0,0,0
6,69999,82,60000,13,0,49,9999,0.100000,0,0,0.000000,6,3.000000,0.000000,11.584468,0,0,0,0,0,0,0
6,69999,83,60000,24,10000,40,9999,0.100000,0,0,0.000000,6,0.000000,0.000000,3.953253,0,0,0,0,0,0,0
6,69999,84,60000,30,10000,49,9999,0.100000,0,0,0.000000,6,8.000000,0.000000,22.156371,0,0,0,0,0,0,0
6,69999,85,60000,30,10000,40,9999,0.100000,0,0,0.000000,6,0.000000,0.000000,0.205601,0,0,0,0,0,0,0
6,69999,86,60000,16,20000,40,9999,0.100000,0,0,0.000000,6,0.000000,0.000000,0.620077,0,0,0,0,0,0,0
6,69999,87,60000,16,20000,40,9999,0.100000,0,0,0.000000,6,0.000000,0.000000,0.774961,0,0,0,0,0,0,0
6,69999,88,60000,24,10000,40,9999,0.100000,0,0,0.000000,6,0.000000,0.000000,0.676992,0,0,0,0,0,0,0
6,69999,89,60000,52,0,40,9999,0.100000,0,0,0.000000,6,0.000000,0.000000,0.261211,0,0,0,0,0,0,0
6,69999,90,60000,24,10000,40,9999,0.100000,0,0,0.000000,6,0.000000,0.000000,0.793328,0,0,0,0,0,0,0
6,69999,91,60000,52,0,40,9999,0.100000,0,0,0.000000,6,0.000000,0.000000,0.423119,0,0,0,0,0,0,0
6,69999,92,60000,65,10000,40,9999,0.100000,0,0,0.000000,6,0.000000,0.000000,0.335703,0,0,0,0,0,0,0
6,69999,93,60000,24,10000,40,9999,0.100000,0,0,0.000000,6,0.000000,0.000000,0.128365,0,0,0,0,0,0,0
6,69999,94,60000,24,10000,40,9999,0.100000,0,0,0.000000,6,0.000000,0.000000,6.834289,0,0,0,0,0,0,0
6,69999,95,60000,24,10000,40,9999,0.100000,0,0,0.000000,6,0.000000,0.000000,0.114427,0,0,0,0,0,0,0
6,69999,96,60000,24,10000,40,9999,0.100000,0,0,0.000000,6,0.000000,0.000000,0.104553,0,0,0,0,0,0,0
6,69999,97,60000,65,10000,40,9999,0.100000,0,0,0.000000,6,0.000000,0.000000,0.783570,0,0,0,0,0,0,0
6,69999,98,60000,52,0,99,9999,0.100000,0,0,34.210526,6,1.000000,0.000000,8.591099,0,0,1,0,0,0,0
6,69999,99,60000,52,0,49,9999,0.100000,0,0,0.000000,6,9.000000,0.000000,18.728502,0,0,0,0,0,0,0
7,79999,0,70000,24,10000,9,9999,0.100000,0,0,0.000000,6,1.000000,0.000000,5.225586,0,0,0,0,1,0,0
7,79999,1,70000,52,0,40,9999,0.100000,0,0,0.000000,6,0.000000,0.000000,0.526929,0,0,0,0,0,0,0
7,79999,2,70000,24,10000,49,9999,0.100000,0,0,0.000000,6,2.000000,0.000000,5.137047,0,0,0,0,0,0,0
7,79999,3,70000,30,10000,40,9999,0.100000,0,0,0.000000,6,0.000000,0.000000,0.102241,0,0,0,0,0,0,0
7,79999,4,70000,16,20000,40,9999,0.100000,0,0,0.000000,6,0.000000,0.000000,1.021874,0,0,0,0,0,0,0
7,79999,5,70000,13,0,40,9999,0.100000,0,0,0.000000,6,0.000000,0.000000,0.088858,0,0,0,0,0,0,0
7,79999,6,70000,24,10000,40,9999,0.100000,0,0,0.000000,6,0.000000,0.000000,0.816160,0,0,0,0,0,0,0
7,79999,7,70000,30,10000,40,9999,0.100000,0,0,0.000000,6,0.000000,0.000000,0.626087,0,0,0,0,0,0,0
7,79999,8,70000,13,0,40,9999,0.100000,0,0,0.000000,6,0.000000,0.000000,0.161002,0,0,0,0,0,0,0
7,79999,9,70000,30,10000,40,9999,0.100000,0,0,0.000000,6,0.000000,0.000000,0.681826,0,0,0,0,0,0,0
7,79999,10,70000,16,20000,49,9999,0.100000,0,0,0.000000,6,9.000000,0.000000,10.564104,0,0,0,0,0,0,0
7,79999,11,70000,52,0,49,9999,0.100000,0,0,0.000000,6,1.000000,0.000000,8.202462,0,0,0,0,0,0,0
7,79999,12,70000,65,10000,40,9999,0.100000,0,0,0.000000,6,0.000000,0.000000,0.551760,0,0,0,0,0,0,0
7,79999,13,70000,30,10000,40,9999,0.100000,0,0,0.000000,6,0.000000,0.000000,0.524238,0,0,0,0,0,0,0
7,79999,14,70000,65,10000,40,9999,0.100000,0,0,0.000000,6,0.000000,0.000000,0.180554,0,0,0,0,0,0,0
7,79999,15,70000,13,0,49,9999,0.100000,0,0,0.000000,6,1.000000,0.000000,1.576867,0,0,0,0,0,0,0
7,79999,16,70000,52,0,40,9999,0.100000,0,0,0.000000,6,0.000000,0.000000,0.735236,0,0,0,0,0,0,0
7,79999,17,70000,24,10000,49,9999,0.100000,0,0,0.000000,6,3.000000,0.000000,3.765459,0,0,0,0,0,0,0
7,79999,18,70000,24,10000,40,9999,0.135000,0,0,0.000000,6,0.000000,0.000000,0.133694,0,0,0,0,0,0,0
7,79999,19,70000,13,0,40,9999,0.100000,0,0,0.000000,6,0.000000,0.000000,2.825634,0,0,0,0,0,0,0
7,79999,20,70000,65,10000,49,9999,0.100000,0,0,0.000000,6,3.000000,0.000000,3.797406,0,0,0,0,0,0,0
7,79999,21,70000,13,0,49,9999,0.100000,0,0,0.000000,6,1.000000,0.000000,5.516358,0,0,0,0,0,0,0
7,79999,22,70000,30,10000,49,9999,0.100000,0,0,0.000000,6,3.000000,0.000000,3.750746,0,0,0,0,0,0,0
7,79999,23,70000,16,20000,49,9999,0.100000,0,0,0.000000,6,9.000000,0.000000,15.577325,0,0,0,0,0,0,0
7,79999,24,70000,52,0,40,9999,0.100000,0,0,0.000000,6,0.000000,0.000000,1.338786,0,0,0,0,0,0,0
7,79999,25,70000,16,20000,40,9999,0.100000,0,0,0.000000,6,0.000000,0.000000,1.285908,0,0,0,0,0,0,0
7,79999,26,70000,13,0,40,9999,0.100000,0,0,0.000000,6,0.000000,0.000000,1.080067,0,0,0,0,0,0,0
7,79999,27,70000,30,10000,40,9999,0.100000,0,0,0.000000,6,0.000000,0.000000,2.731728,0,0,0,0,0,0,0
7,79999,28,70000,24,10000,40,9999,0.100000,0,0,0.000000,6,0.000000,0.000000,0.395159,0,0,0,0,0,0,0
7,79999,29,70000,65,10000,40,9999,0.100000,0,0,0.000000,6,0.000000,0.000000,1.787005,0,0,0,0,0,0,0
7,79999,30,70000,13,0,40,9999,0.100000,0,0,0.000000,6,0.000000,0.000000,0.149675,0,0,0,0,0,0,0
7,79999,31,70000,30,10000,40,9999,0.100000,0,0,0.000000,6,0.000000,0.000000,12.644049,0,0,0,0,0,0,0
7,79999,32,70000,52,0,40,9999,0.100000,0,0,0.000000,6,0.000000,0.000000,0.306732,0,0,0,0,0,0,0
7,79999,33,70000,65,10000,40,9999,0.100000,0,0,0.000000,6,0.000000,0.000000,0.194156,0,0,0,0,0,0,0
7,79999,34,70000,16,20000,40,9999,0.100000,0,0,0.000000,6,0.000000,0.000000,0.774199,0,0,0,0,0,0,0
7,79999,35,70000,13,0,40,9999,0.100000,0,0,0.000000,6,0.000000,0.000000,0.237219,0,0,0,0,0,0,0
7,79999,36,70000,30,10000,49,9999,0.100000,0,0,0.000000,6,7.000000,0.000000,10.495800,0,0,0,0,0,0,0
7,79999,37,70000,13,0,49,9999,0.100000,0,0,0.000000,6,6.000000,0.000000,13.182412,0,0,0,0,0,0,0
7,79999,38,70000,30,10000,40,9999,0.100000,0,0,0.000000,6,0.000000,0.000000,0.104132,0,0,0,0,0,0,0
7,79999,39,70000,52,0,40,9999,0.100000,0,0,0.000000,6,0.000000,0.000000,4.466027,0,0,0,0,0,0,0
7,79999,40,70000,13,0,40,9999,0.100000,0,0,0.000000,6,0.000000,0.000000,0.155083,0,0,0,0,0,0,0
7,79999,41,70000,13,0,49,9999,0.100000,0,0,0.000000,6,9.000000,0.000000,10.352722,0,0,0,0,0,0,0
7,79999,42,70000,13,0,40,9999,0.100000,0,0,0.000000,6,0.000000,0.000000,0.228887,0,0,0,0,0,0,0
7,79999,43,70000,52,0,40,9999,0.100000,0,0,0.000000,6,0.000000,0.000000,0.101817,0,0,0,0,0,0,0
7,79999,44,70000,65,10000,40,9999,0.100000,0,0,0.000000,6,0.000000,0.000000,1.802115,0,0,0,0,0,0,0
7,79999,45,70000,65,10000,40,9999,0.100000,0,0,0.000000,6,0.000000,0.000000,1.742723,0,0,0,0,0,0,0
7,79999,46,70000,16,20000,40,9999,0.100000,0,0,0.000000,6,0.000000,0.000000,0.309359,0,0,0,0,0,0,0
7,79999,47,70000,13,0,40,9999,0.100000,0,0,0.000000,6,0.000000,0.000000,1.463527,0,0,0,0,0,0,0
7,79999,48,70000,13,0,40,9999,0.100000,0,0,0.000000,6,0.000000,0.000000,0.796454,0,0,0,0,0,0,0
7,79999,49,70000,13,0,49,9999,0.100000,0,0,0.000000,6,3.000000,0.000000,15.657199,0,0,0,0,0,0,0
7,79999,50,70000,52,0,49,9999,0.100000,0,0,0.000000,6,1.000000,0.000000,7.468108,0,0,0,0,0,0,0
7,79999,51,70000,13,0,40,9999,0.100000,0,0,0.000000,6,0.000000,0.000000,0.362756,0,0,0,0,0,0,0
7,79999,52,70000,65,10000,40,9999,0.100000,0,0,0.000000,6,0.000000,0.000000,3.926885,0,0,0,0,0,0,0
7,79999,53,70000,30,10000,40,9999,0.135000,0,0,0.000000,6,0.000000,0.000000,0.199220,0,0,0,0,0,0,0
7,79999,54,70000,30,10000,49,9999,0.100000,0,0,0.000000,6,1.000000,0.000000,8.540013,0,0,0,0,0,0,0
7,79999,55,70000,13,0,49,9999,0.100000,0,0,0.000000,6,5.000000,0.000000,15.191112,0,0,0,0,0,0,0
7,79999,56,70000,30,10000,40,9999,0.100000,0,0,0.000000,6,0.000000,0.000000,0.169471,0,0,0,0,0,0,0
7,79999,57,70000,52,0,40,9999,0.100000,0,0,0.000000,6,0.000000,0.000000,1.504819,0,0,0,0,0,0,0
7,79999,58,70000,16,20000,49,9999,0.100000,0,0,0.000000,6,1.000000,0.000000,2.250267,0,0,0,0,0,0,0
7,79999,59,70000,24,10000,40,9999,0.100000,0,0,0.000000,6,0.000000,0.000000,5.257715,0,0,0,0,0,0,0
7,79999,60,70000,65,10000,40,9999,0.100000,0,0,0.000000,6,0.000000,0.000000,0.126733,0,0,0,0,0,0,0
7,79999,61,70000,16,20000,40,9999,0.100000,0,0,0.000000,6,0.000000,0.000000,1.003544,0,0,0,0,0,0,0
7,79999,62,70000,30,10000,49,9999,0.100000,0,0,0.000000,6,9.000000,0.000000,10.426155,0,0,0,0,0,0,0
7,79999,63,70000,52,0,40,9999,0.100000,0,0,0.000000,6,0.000000,0.000000,0.079717,0,0,0,0,0,0,0
7,79999,64,70000,30,10000,40,9999,0.100000,0,0,0.000000,6,0.000000,0.000000,0.839443,0,0,0,0,0,0,0
7,79999,65,70000,24,10000,40,9999,0.100000,0,0,0.000000,6,0.000000,0.000000,1.079794,0,0,0,0,0,0,0
7,79999,66,70000,13,0,40,9999,0.100000,0,0,0.000000,6,0.000000,0.000000,0.312263,0,0,0,0,0,0,0
7,79999,67,70000,13,0,40,9999,0.100000,0,0,0.000000,6,0.000000,0.000000,0.153654,0,0,0,0,0,0,0
7,79999,68,70000,24,10000,40,9999,0.100000,0,0,0.000000,6,0.000000,0.000000,0.103394,0,0,0,0,0,0,0
7,79999,69,70000,52,0,49,9999,0.100000,0,0,0.000000,6,9.000000,0.000000,12.309953,0,0,0,0,0,0,0
7,79999,70,70000,52,0,40,9999,0.100000,0,0,0.000000,6,0.000000,0.000000,6.298043,0,0,0,0,0,0,0
7,79999,71,70000,13,0,40,9999,0.100000,0,0,0.000000,6,0.000000,0.000000,1.233742,0,0,0,0,0,0,0
7,79999,72,70000,65,10000,40,9999,0.100000,0,0,0.000000,6,0.000000,0.000000,0.285949,0,0,0,0,0,0,0
7,79999,73,70000,52,0,40,9999,0.100000,0,0,0.000000,6,0.000000,0.000000,2.057059,0,0,0,0,0,0,0
7,79999,74,70000,24,10000,40,9999,0.100000,0,0,0.000000,6,0.000000,0.000000,0.595649,0,0,0,0,0,0,0
7,79999,75,70000,65,10000,49,9999,0.100000,0,0,0.000000,6,1.000000,0.000000,1.843810,0,0,0,0,0,0,0
7,79999,76,70000,13,0,40,9999,0.100000,0,0,0.000000,6,0.000000,0.000000,5.351746,0,0,0,0,0,0,0
7,79999,77,70000,16,20000,40,9999,0.100000,0,0,0.000000,6,0.000000,0.000000,0.310191,0,0,0,0,0,0,0
7,79999,78,70000,52,0,40,9999,0.100000,0,0,0.000000,6,0.000000,0.000000,1.262845,0,0,0,0,0,0,0
7,79999,79,70000,13,0,49,9999,0.100000,0,0,0.000000,6,1.000000,0.000000,19.786405,0,0,0,0,0,0,0
7,79999,80,70000,52,0,40,9999,0.065000,0,0,0.000000,6,0.000000,0.000000,3.266479,0,0,0,0,0,0,0
7,79999,81,70000,65,10000,49,9999,0.100000,0,0,0.000000,6,1.000000,0.000000,6.600566,0,0,0,0,0,0,0
7,79999,82,70000,16,20000,49,9999,0.100000,0,0,0.000000,6,1.000000,0.000000,7.759238,0,0,0,0,0,0,0
7,79999,83,70000,52,0,40,9999,0.100000,0,0,0.000000,6,0.000000,0.000000,2.475990,0,0,0,0,0,0,0
7,79999,84,70000,65,10000,40,9999,0.100000,0,0,0.000000,6,0.000000,0.000000,14.119747,0,0,0,0,0,0,0
7,79999,85,70000,52,0,40,9999,0.100000,0,0,0.000000,6,0.000000,0.000000,0.602233,0,0,0,0,0,0,0
7,79999,86,70000,24,10000,49,9999,0.100000,0,0,0.000000,6,1.000000,0.000000,1.970858,0,0,0,0,0,0,0
7,79999,87,70000,24,10000,40,9999,0.100000,0,0,0.000000,6,0.000000,0.000000,0.881879,0,0,0,0,0,0,0
7,79999,88,70000,16,20000,49,9999,0.100000,0,0,0.000000,6,1.000000,0.000000,1.955483,0,0,0,0,0,0,0
7,79999,89,70000,13,0,49,9999,0.100000,0,0,0.000000,6,3.000000,0.000000,3.732849,0,0,0,0,0,0,0
7,79999,90,70000,24,10000,40,9999,0.100000,0,0,0.000000,6,0.000000,0.000000,1.890530,0,0,0,0,0,0,0
7,79999,91,70000,13,0,40,9999,0.100000,0,0,0.000000,6,0.000000,0.000000,0.432058,0,0,0,0,0,0,0
7,79999,92,70000,65,10000,40,9999,0.135000,0,0,0.000000,6,0.000000,0.000000,0.326195,0,0,0,0,0,0,0
7,79999,93,70000,65,10000,40,9999,0.100000,0,0,0.000000,6,0.000000,0.000000,0.129816,0,0,0,0,0,0,0
7,79999,94,70000,30,10000,40,9999,0.100000,0,0,0.000000,6,0.000000,0.000000,1.252993,0,0,0,0,0,0,0
7,79999,95,70000,24,10000,40,9999,0.100000,0,0,0.000000,6,0.000000,0.000000,0.114805,0,0,0,0,0,0,0
7,79999,96,70000,16,20000,40,9999,0.100000,0,0,0.000000,6,0.000000,0.000000,0.113364,0,0,0,0,0,0,0
7,79999,97,70000,24,10000,40,9999,0.100000,0,0,0.000000,6,0.000000,0.000000,0.780523,0,0,0,0,0,0,0
7,79999,98,70000,65,10000,40,9999,0.100000,0,0,0.000000,6,0.000000,0.000000,7.929493,0,0,0,0,0,0,0
7,79999,99,70000,30,10000,49,9999,0.100000,0,0,0.000000,6,9.000000,0.000000,18.944244,0,0,0,0,0,0,0
8,89999,0,80000,65,10000,49,9999,0.100000,0,0,0.000000,6,1.000000,0.000000,1.619250,0,0,0,0,0,0,0
8,89999,1,80000,30,10000,40,9999,0.100000,0,0,0.000000,6,0.000000,0.000000,0.558386,0,0,0,0,0,0,0
8,89999,2,80000,52,0,49,9999,0.100000,0,0,0.000000,6,1.000000,0.000000,1.837071,0,0,0,0,0,0,0
8,89999,3,80000,24,10000,40,9999,0.100000,0,0,0.000000,6,0.000000,0.000000,0.096828,0,0,0,0,0,0,0
8,89999,4,80000,65,10000,40,9999,0.100000,0,0,0.000000,6,0.000000,0.000000,0.979333,0,0,0,0,0,0,0
8,89999,5,80000,16,20000,40,9999,0.100000,0,0,0.000000,6,0.000000,0.000000,0.088035,0,0,0,0,0,0,0
8,89999,6,80000,13,0,40,9999,0.100000,0,0,0.000000,6,0.000000,0.000000,1.023980,0,0,0,0,0,0,0
8,89999,7,80000,52,0,40,9999,0.100000,0,0,0.000000,6,0.000000,0.000000,0.777498,0,0,0,0,0,0,0
8,89999,8,80000,13,0,40,9999,0.100000,0,0,0.000000,6,0.000000,0.000000,0.179329,0,0,0,0,0,0,0
8,89999,9,80000,52,0,40,9999,0.100000,0,0,0.000000,6,0.000000,0.000000,0.097991,0,0,0,0,0,0,0
8,89999,10,80000,13,0,40,9999,0.100000,0,0,0.000000,6,0.000000,0.000000,0.531961,0,0,0,0,0,0,0
8,89999,11,80000,24,10000,40,9999,0.100000,0,0,0.000000,6,0.000000,0.000000,0.149388,0,0,0,0,0,0,0
8,89999,12,80000,65,10000,40,9999,0.100000,0,0,0.000000,6,0.000000,0.000000,1.067424,0,0,0,0,0,0,0
8,89999,13,80000,16,20000,40,9999,0.100000,0,0,0.000000,6,0.000000,0.000000,0.729394,0,0,0,0,0,0,0
8,89999,14,80000,65,10000,40,9999,0.100000,0,0,0.000000,6,0.000000,0.000000,0.180449,0,0,0,0,0,0,0
8,89999,15,80000,65,10000,9,9999,0.100000,0,0,0.000000,6,1.000000,0.000000,1.977779,0,0,0,1,0,0,0
8,89999,16,80000,24,10000,40,9999,0.100000,0,0,0.000000,6,0.000000,0.000000,0.684375,0,0,0,0,0,0,0
8,89999,17,80000,52,0,40,9999,0.100000,0,0,0.000000,6,0.000000,0.000000,0.601081,0,0,0,0,0,0,0
8,89999,18,80000,13,0,40,9999,0.100000,0,0,0.000000,6,0.000000,0.000000,0.325949,0,0,0,0,0,0,0
8,89999,19,80000,16,20000,40,9999,0.100000,0,0,0.000000,6,0.000000,0.000000,1.854101,0,0,0,0,0,0,0
8,89999,20,80000,13,0,40,9999,0.100000,0,0,0.000000,6,0.000000,0.000000,0.614768,0,0,0,0,0,0,0
8,89999,21,80000,13,0,40,9999,0.100000,0,0,0.000000,6,0.000000,0.000000,0.858139,0,0,0,0,0,0,0
8,89999,22,80000,30,10000,40,9999,0.100000,0,0,0.000000,6,0.000000,0.000000,0.524494,0,0,0,0,0,0,0
8,89999,23,80000,16,20000,40,9999,0.100000,0,0,0.000000,6,0.000000,0.000000,2.642591,0,0,0,0,0,0,0
8,89999,24,80000,65,10000,40,9999,0.100000,0,0,0.000000,6,0.000000,0.000000,2.273389,0,0,0,0,0,0,0
8,89999,25,80000,65,10000,49,9999,0.100000,0,0,0.000000,6,1.000000,0.000000,2.576890,0,0,0,0,0,0,0
8,89999,26,80000,52,0,40,9999,0.100000,0,0,0.000000,6,0.000000,0.000000,1.496768,0,0,0,0,0,0,0
8,89999,27,80000,16,20000,40,9999,0.100000,0,0,0.000000,6,0.000000,0.000000,2.648953,0,0,0,0,0,0,0
8,89999,28,80000,16,20000,40,9999,0.100000,0,0,0.000000,6,0.000000,0.000000,0.520968,0,0,0,0,0,0,0
8,89999,29,80000,13,0,49,9999,0.100000,0,0,0.000000,6,1.000000,0.000000,2.395919,0,0,0,0,0,0,0
8,89999,30,80000,16,20000,40,9999,0.100000,0,0,0.000000,6,0.000000,0.000000,0.087296,0,0,0,0,0,0,0
8,89999,31,80000,52,0,40,9999,0.100000,0,0,0.000000,6,0.000000,0.000000,16.762994,0,0,0,0,0,0,0
8,89999,32,80000,52,0,40,9999,0.100000,0,0,0.000000,6,0.000000,0.000000,0.352603,0,0,0,0,0,0,0
8,89999,33,80000,13,0,40,9999,0.100000,0,0,0.000000,6,0.000000,0.000000,0.178045,0,0,0,0,0,0,0
8,89999,34,80000,13,0,40,9999,0.100000,0,0,0.000000,6,0.000000,0.000000,0.805679,0,0,0,0,0,0,0
8,89999,35,80000,13,0,40,9999,0.100000,0,0,0.000000,6,0.000000,0.000000,0.235819,0,0,0,0,0,0,0
8,89999,36,80000,24,10000,49,9999,0.100000,0,0,0.000000,6,5.000000,0.000000,17.417978,0,0,0,0,0,0,0
8,89999,37,80000,24,10000,40,9999,0.100000,0,0,0.000000,6,0.000000,0.000000,0.237910,0,0,0,0,0,0,0
8,89999,38,80000,30,10000,40,9999,0.100000,0,0,0.000000,6,0.000000,0.000000,0.103217,0,0,0,0,0,0,0
8,89999,39,80000,65,10000,40,9999,0.100000,0,0,0.000000,6,0.000000,0.000000,1.774688,0,0,0,0,0,0,0
8,89999,40,80000,52,0,40,9999,0.100000,0,0,0.000000,6,0.000000,0.000000,0.105210,0,0,0,0,0,0,0
8,89999,41,80000,52,0,40,9999,0.100000,0,0,0.000000,6,0.000000,0.000000,0.847017,0,0,0,0,0,0,0
8,89999,42,80000,24,10000,40,9999,0.100000,0,0,0.000000,6,0.000000,0.000000,0.201761,0,0,0,0,0,0,0
8,89999,43,80000,13,0,40,9999,0.100000,0,0,0.000000,6,0.000000,0.000000,0.085517,0,0,0,0,0,0,0
8,89999,44,80000,16,20000,40,9999,0.065000,0,0,0.000000,6,0.000000,0.000000,1.017051,0,0,0,0,0,0,0
8,89999,45,80000,52,0,40,9999,0.100000,0,0,0.000000,6,0.000000,0.000000,0.386923,0,0,0,0,0,0,0
8,89999,46,80000,16,20000,40,9999,0.100000,0,0,0.000000,6,0.000000,0.000000,0.312019,0,0,0,0,0,0,0
8,89999,47,80000,65,10000,40,9999,0.100000,0,0,0.000000,6,0.000000,0.000000,1.307749,0,0,0,0,0,0,0
8,89999,48,80000,13,0,40,9999,0.100000,0,0,0.000000,6,0.000000,0.000000,0.193531,0,0,0,0,0,0,0
8,89999,49,80000,52,0,49,9999,0.100000,0,0,0.000000,6,1.000000,0.000000,8.349015,0,0,0,0,0,0,0
8,89999,50,80000,16,20000,49,9999,0.100000,0,0,0.000000,6,1.000000,0.000000,4.195688,0,0,0,0,0,0,0
8,89999,51,80000,52,0,40,9999,0.100000,0,0,0.000000,6,0.000000,0.000000,0.366285,0,0,0,0,0,0,0
8,89999,52,80000,16,20000,40,9999,0.100000,0,0,0.000000,6,0.000000,0.000000,1.628264,0,0,0,0,0,0,0
8,89999,53,80000,30,10000,40,9999,0.100000,0,0,0.000000,6,0.000000,0.000000,0.222828,0,0,0,0,0,0,0
8,89999,54,80000,30,10000,40,9999,0.100000,0,0,0.000000,6,0.000000,0.000000,2.377853,0,0,0,0,0,0,0
8,89999,55,80000,65,10000,40,9999,0.100000,0,0,0.000000,6,0.000000,0.000000,0.174702,0,0,0,0,0,0,0
8,89999,56,80000,16,20000,40,9999,0.100000,0,0,0.000000,6,0.000000,0.000000,0.085179,0,0,0,0,0,0,0
8,89999,57,80000,13,0,40,9999,0.100000,0,0,0.000000,6,0.000000,0.000000,0.985889,0,0,0,0,0,0,0
8,89999,58,80000,30,10000,40,9999,0.100000,0,0,0.000000,6,0.000000,0.000000,0.714360,0,0,0,0,0,0,0
8,89999,59,80000,30,10000,40,9999,0.100000,0,0,0.000000,6,0.000000,0.000000,2.244707,0,0,0,0,0,0,0
8,89999,60,80000,52,0,49,9999,0.100000,0,0,0.000000,6,1.000000,0.000000,2.028842,0,0,0,0,0,0,0
8,89999,61,80000,13,0,40,9999,0.100000,0,0,0.000000,6,0.000000,0.000000,0.712223,0,0,0,0,0,0,0
8,89999,62,80000,13,0,40,9999,0.100000,0,0,0.000000,6,0.000000,0.000000,0.449063,0,0,0,0,0,0,0
8,89999,63,80000,16,20000,40,9999,0.100000,0,0,0.000000,6,0.000000,0.000000,0.078946,0,0,0,0,0,0,0
8,89999,64,80000,52,0,40,9999,0.100000,0,0,0.000000,6,0.000000,0.000000,1.561542,0,0,0,0,0,0,0
8,89999,65,80000,65,10000,40,9999,0.100000,0,0,0.000000,6,0.000000,0.000000,1.007908,0,0,0,0,0,0,0
8,89999,66,80000,16,20000,40,9999,0.100000,0,0,0.000000,6,0.000000,0.000000,0.343358,0,0,0,0,0,0,0
8,89999,67,80000,13,0,40,9999,0.100000,0,0,0.000000,6,0.000000,0.000000,0.248186,0,0,0,0,0,0,0
8,89999,68,80000,30,10000,40,9999,0.100000,0,0,0.000000,6,0.000000,0.000000,0.103662,0,0,0,0,0,0,0
8,89999,69,80000,65,10000,49,9999,0.100000,0,0,0.000000,6,3.000000,0.000000,8.272381,0,0,0,0,0,0,0
8,89999,70,80000,30,10000,49,9999,0.100000,0,0,0.000000,6,3.000000,0.000000,7.008023,0,0,0,0,0,0,0
8,89999,71,80000,13,0,40,9999,0.100000,0,0,0.000000,6,0.000000,0.000000,0.964608,0,0,0,0,0,0,0
8,89999,72,80000,13,0,40,9999,0.100000,0,0,0.000000,6,0.000000,0.000000,0.478005,0,0,0,0,0,0,0
8,89999,73,80000,52,0,40,9999,0.100000,0,0,0.000000,6,0.000000,0.000000,1.244599,0,0,0,0,0,0,0
8,89999,74,80000,16,20000,40,9999,0.100000,0,0,0.000000,6,0.000000,0.000000,0.562523,0,0,0,0,0,0,0
8,89999,75,80000,24,10000,49,9999,0.100000,0,0,0.000000,6,2.000000,0.000000,3.566422,0,0,0,0,0,0,0
8,89999,76,80000,52,0,40,9999,0.100000,0,0,0.000000,6,0.000000,0.000000,4.744615,0,0,0,0,0,0,0
8,89999,77,80000,16,20000,40,9999,0.100000,0,0,0.000000,6,0.000000,0.000000,0.328444,0,0,0,0,0,0,0
8,89999,78,80000,24,10000,40,9999,0.100000,0,0,0.000000,6,0.000000,0.000000,1.306721,0,0,0,0,0,0,0
8,89999,79,80000,52,0,40,9999,0.100000,0,0,0.000000,6,0.000000,0.000000,11.168846,0,0,0,0,0,0,0
8,89999,80,80000,65,10000,0,9999,0.100000,0,0,0.000000,6,0.000000,0.000000,2.715679,0,0,0,1,0,0,0
8,89999,81,80000,65,10000,40,9999,0.100000,0,0,0.000000,6,0.000000,0.000000,1.713178,0,0,0,0,0,0,0
8,89999,82,80000,65,10000,40,9999,0.100000,0,0,0.000000,6,0.000000,0.000000,0.880677,0,0,0,0,0,0,0
8,89999,83,80000,24,10000,40,9999,0.100000,0,0,0.000000,6,0.000000,0.000000,1.859703,0,0,0,0,0,0,0
8,89999,84,80000,24,10000,40,9999,0.100000,0,0,0.000000,6,0.000000,0.000000,15.712555,0,0,0,0,0,0,0
8,89999,85,80000,24,10000,40,9999,0.100000,0,0,0.000000,6,0.000000,0.000000,0.556559,0,0,0,0,0,0,0
8,89999,86,80000,65,10000,40,9999,0.100000,0,0,0.000000,6,0.000000,0.000000,0.616708,0,0,0,0,0,0,0
8,89999,87,80000,52,0,49,9999,0.100000,0,0,0.000000,6,1.000000,0.000000,1.899822,0,0,0,0,0,0,0
8,89999,88,80000,24,10000,40,9999,0.100000,0,0,0.000000,6,0.000000,0.000000,0.664304,0,0,0,0,0,0,0
8,89999,89,80000,65,10000,40,9999,0.100000,0,0,0.000000,6,0.000000,0.000000,0.510433,0,0,0,0,0,0,0
8,89999,90,80000,13,0,40,9999,0.100000,0,0,0.000000,6,0.000000,0.000000,0.991797,0,0,0,0,0,0,0
8,89999,91,80000,30,10000,40,9999,0.100000,0,0,0.000000,6,0.000000,0.000000,0.438118,0,0,0,0,0,0,0
8,89999,92,80000,16,20000,40,9999,0.100000,0,0,0.000000,6,0.000000,0.000000,0.319115,0,0,0,0,0,0,0
8,89999,93,80000,16,20000,49,9999,0.100000,0,0,0.000000,6,1.000000,0.000000,1.481337,0,0,0,0,0,0,0
8,89999,94,80000,30,10000,40,9999,0.100000,0,0,0.000000,6,0.000000,0.000000,0.585539,0,0,0,0,0,0,0
8,89999,95,80000,30,10000,40,9999,0.100000,0,0,0.000000,6,0.000000,0.000000,0.116015,0,0,0,0,0,0,0
8,89999,96,80000,65,10000,49,9999,0.100000,0,0,0.000000,6,1.000000,0.000000,1.327057,0,0,0,0,0,0,0
8,89999,97,80000,13,0,40,9999,0.100000,0,0,0.000000,6,0.000000,0.000000,0.773202,0,0,0,0,0,0,0
8,89999,98,80000,24,10000,40,9999,0.100000,0,0,0.000000,6,0.000000,0.000000,4.958806,0,0,0,0,0,0,0
8,89999,99,80000,30,10000,40,9999,0.100000,0,0,0.000000,6,0.000000,0.000000,0.989528,0,0,0,0,0,0,0
9,99999,0,90000,16,20000,40,9999,0.100000,0,0,0.000000,6,0.000000,0.000000,5.525496,0,0,0,0,0,0,0
9,99999,1,90000,52,0,40,9999,0.100000,0,0,0.000000,6,0.000000,0.000000,0.576665,0,0,0,0,0,0,0
9,99999,2,90000,13,0,49,9999,0.100000,0,0,0.000000,6,6.000000,0.000000,19.539027,0,0,0,0,0,0,0
9,99999,3,90000,24,10000,40,9999,0.100000,0,0,0.000000,6,0.000000,0.000000,0.116567,0,0,0,0,0,0,0
9,99999,4,90000,16,20000,40,9999,0.100000,0,0,0.000000,6,0.000000,0.000000,1.064271,0,0,0,0,0,0,0
9,99999,5,90000,13,0,40,9999,0.100000,0,0,0.000000,6,0.000000,0.000000,0.091092,0,0,0,0,0,0,0
9,99999,6,90000,13,0,40,9999,0.100000,0,0,0.000000,6,0.000000,0.000000,0.939553,0,0,0,0,0,0,0
9,99999,7,90000,30,10000,40,9999,0.100000,0,0,0.000000,6,0.000000,0.000000,1.507935,0,0,0,0,0,0,0
9,99999,8,90000,52,0,40,9999,0.100000,0,0,0.000000,6,0.000000,0.000000,0.172583,0,0,0,0,0,0,0
9,99999,9,90000,52,0,49,9999,0.100000,0,0,0.000000,6,1.000000,0.000000,5.802936,0,0,0,0,0,0,0
9,99999,10,90000,52,0,49,9999,0.100000,0,0,0.000000,6,1.000000,0.000000,10.750086,0,0,0,0,0,0,0
9,99999,11,90000,30,10000,40,9999,0.100000,0,0,0.000000,6,0.000000,0.000000,0.162667,0,0,0,0,0,0,0
9,99999,12,90000,65,10000,49,9999,0.100000,0,0,0.000000,6,1.000000,0.000000,4.026389,0,0,0,0,0,0,0
9,99999,13,90000,13,0,40,9999,0.100000,0,0,0.000000,6,0.000000,0.000000,0.500249,0,0,0,0,0,0,0
9,99999,14,90000,13,0,40,9999,0.100000,0,0,0.000000,6,0.000000,0.000000,0.195629,0,0,0,0,0,0,0
9,99999,15,90000,30,10000,49,9999,0.100000,0,0,0.000000,6,2.000000,0.000000,3.036054,0,0,0,0,0,0,0
9,99999,16,90000,16,20000,40,9999,0.100000,0,0,0.000000,6,0.000000,0.000000,0.791106,0,0,0,0,0,0,0
9,99999,17,90000,65,10000,40,9999,0.100000,0,0,0.000000,6,0.000000,0.000000,0.596557,0,0,0,0,0,0,0
9,99999,18,90000,13,0,49,9999,0.100000,0,0,0.000000,6,1.000000,0.000000,2.167134,0,0,0,0,0,0,0
9,99999,19,90000,13,0,40,9999,0.100000,0,0,0.000000,6,0.000000,0.000000,3.505394,0,0,0,0,0,0,0
9,99999,20,90000,13,0,40,9999,0.100000,0,0,0.000000,6,0.000000,0.000000,0.646491,0,0,0,0,0,0,0
9,99999,21,90000,16,20000,40,9999,0.100000,0,0,0.000000,6,0.000000,0.000000,0.695237,0,0,0,0,0,0,0
9,99999,22,90000,30,10000,40,9999,0.100000,0,0,0.000000,6,0.000000,0.000000,0.585159,0,0,0,0,0,0,0
9,99999,23,90000,30,10000,40,9999,0.100000,0,0,0.000000,6,0.000000,0.000000,1.586309,0,0,0,0,0,0,0
9,99999,24,90000,13,0,40,9999,0.100000,0,0,0.000000,6,0.000000,0.000000,0.834969,0,0,0,0,0,0,0
9,99999,25,90000,65,10000,40,9999,0.100000,0,0,0.000000,6,0.000000,0.000000,1.715537,0,0,0,0,0,0,0
9,99999,26,90000,16,20000,49,9999,0.100000,0,0,0.000000,6,1.000000,0.000000,1.697495,0,0,0,0,0,0,0
9,99999,27,90000,52,0,40,9999,0.100000,0,0,0.000000,6,0.000000,0.000000,2.140374,0,0,0,0,0,0,0
9,99999,28,90000,13,0,40,9999,0.100000,0,0,0.000000,6,0.000000,0.000000,1.381421,0,0,0,0,0,0,0
9,99999,29,90000,65,10000,40,9999,0.100000,0,0,0.000000,6,0.000000,0.000000,3.118452,0,0,0,0,0,0,0
9,99999,30,90000,52,0,40,9999,0.100000,0,0,0.000000,6,0.000000,0.000000,0.128061,0,0,0,0,0,0,0
9,99999,31,90000,30,10000,40,9999,0.100000,0,0,0.000000,6,0.000000,0.000000,2.524912,0,0,0,0,0,0,0
9,99999,32,90000,30,10000,49,9999,0.100000,0,0,0.000000,6,7.000000,0.000000,15.694758,0,0,0,0,0,0,0
9,99999,33,90000,30,10000,40,9999,0.100000,0,0,0.000000,6,0.000000,0.000000,0.236639,0,0,0,0,0,0,0
9,99999,34,90000,16,20000,40,9999,0.100000,0,0,0.000000,6,0.000000,0.000000,0.987978,0,0,0,0,0,0,0
9,99999,35,90000,13,0,40,9999,0.100000,0,0,0.000000,6,0.000000,0.000000,0.233103,0,0,0,0,0,0,0
9,99999,36,90000,65,10000,49,9999,0.100000,0,0,0.000000,6,1.000000,0.000000,4.040496,0,0,0,0,0,0,0
9,99999,37,90000,24,10000,40,9999,0.100000,0,0,0.000000,6,0.000000,0.000000,0.587300,0,0,0,0,0,0,0
9,99999,38,90000,65,10000,40,9999,0.100000,0,0,0.000000,6,0.000000,0.000000,0.101613,0,0,0,0,0,0,0
9,99999,39,90000,16,20000,40,9999,0.100000,0,0,0.000000,6,0.000000,0.000000,1.627527,0,0,0,0,0,0,0
9,99999,40,90000,52,0,40,9999,0.100000,0,0,0.000000,6,0.000000,0.000000,0.083704,0,0,0,0,0,0,0
9,99999,41,90000,52,0,49,9999,0.100000,0,0,0.000000,6,1.000000,0.000000,8.240472,0,0,0,0,0,0,0
9,99999,42,90000,16,20000,40,9999,0.100000,0,0,0.000000,6,0.000000,0.000000,0.187898,0,0,0,0,0,0,0
9,99999,43,90000,30,10000,40,9999,0.100000,0,0,0.000000,6,0.000000,0.000000,0.107059,0,0,0,0,0,0,0
9,99999,44,90000,65,10000,40,9999,0.100000,0,0,0.000000,6,0.000000,0.000000,0.969158,0,0,0,0,0,0,0
9,99999,45,90000,65,10000,40,9999,0.100000,0,0,0.000000,6,0.000000,0.000000,3.923923,0,0,0,0,0,0,0
9,99999,46,90000,24,10000,40,9999,0.100000,0,0,0.000000,6,0.000000,0.000000,0.486455,0,0,0,0,0,0,0
9,99999,47,90000,30,10000,40,9999,0.100000,0,0,0.000000,6,0.000000,0.000000,1.315548,0,0,0,0,0,0,0
9,99999,48,90000,13,0,40,9999,0.100000,0,0,0.000000,6,0.000000,0.000000,0.200174,0,0,0,0,0,0,0
9,99999,49,90000,13,0,40,9999,0.100000,0,0,0.000000,6,0.000000,0.000000,3.009406,0,0,0,0,0,0,0
9,99999,50,90000,65,10000,49,9999,0.100000,0,0,0.000000,6,1.000000,0.000000,6.187103,0,0,0,0,0,0,0
9,99999,51,90000,16,20000,40,9999,0.100000,0,0,0.000000,6,0.000000,0.000000,0.324010,0,0,0,0,0,0,0
9,99999,52,90000,16,20000,40,9999,0.100000,0,0,0.000000,6,0.000000,0.000000,0.541793,0,0,0,0,0,0,0
9,99999,53,90000,24,10000,40,9999,0.100000,0,0,0.000000,6,0.000000,0.000000,0.384541,0,0,0,0,0,0,0
9,99999,54,90000,13,0,40,9999,0.100000,0,0,0.000000,6,0.000000,0.000000,0.993415,0,0,0,0,0,0,0
9,99999,55,90000,52,0,40,9999,0.100000,0,0,0.000000,6,0.000000,0.000000,0.174752,0,0,0,0,0,0,0
9,99999,56,90000,30,10000,40,9999,0.100000,0,0,0.000000,6,0.000000,0.000000,0.216252,0,0,0,0,0,0,0
9,99999,57,90000,13,0,40,9999,0.100000,0,0,0.000000,6,0.000000,0.000000,0.933084,0,0,0,0,0,0,0
9,99999,58,90000,24,10000,49,9999,0.100000,0,0,0.000000,6,1.000000,0.000000,8.521647,0,0,0,0,0,0,0
9,99999,59,90000,30,10000,40,9999,0.100000,0,0,0.000000,6,0.000000,0.000000,0.835132,0,0,0,0,0,0,0
9,99999,60,90000,52,0,40,9999,0.100000,0,0,0.000000,6,0.000000,0.000000,2.096130,0,0,0,0,0,0,0
9,99999,61,90000,24,10000,40,9999,0.100000,0,0,0.000000,6,0.000000,0.000000,0.523584,0,0,0,0,0,0,0
9,99999,62,90000,24,10000,40,9999,0.100000,0,0,0.000000,6,0.000000,0.000000,3.008755,0,0,0,0,0,0,0
9,99999,63,90000,16,20000,40,9999,0.100000,0,0,0.000000,6,0.000000,0.000000,0.079019,0,0,0,0,0,0,0
9,99999,64,90000,52,0,49,9999,0.100000,0,0,0.000000,6,1.000000,0.000000,4.300325,0,0,0,0,0,0,0
9,99999,65,90000,16,20000,40,9999,0.100000,0,0,0.000000,6,0.000000,0.000000,1.023669,0,0,0,0,0,0,0
9,99999,66,90000,52,0,40,9999,0.100000,0,0,0.000000,6,0.000000,0.000000,0.550472,0,0,0,0,0,0,0
9,99999,67,90000,13,0,49,9999,0.100000,0,0,0.000000,6,1.000000,0.000000,1.885622,0,0,0,0,0,0,0
9,99999,68,90000,13,0,40,9999,0.100000,0,0,0.000000,6,0.000000,0.000000,0.103801,0,0,0,0,0,0,0
9,99999,69,90000,52,0,40,9999,0.100000,0,0,0.000000,6,0.000000,0.000000,2.744009,0,0,0,0,0,0,0
9,99999,70,90000,24,10000,40,9999,0.100000,0,0,0.000000,6,0.000000,0.000000,1.763805,0,0,0,0,0,0,0
9,99999,71,90000,24,10000,40,9999,0.100000,0,0,0.000000,6,0.000000,0.000000,1.954078,0,0,0,0,0,0,0
9,99999,72,90000,24,10000,40,9999,0.100000,0,0,0.000000,6,0.000000,0.000000,0.161156,0,0,0,0,0,0,0
9,99999,73,90000,30,10000,40,9999,0.100000,0,0,0.000000,6,0.000000,0.000000,0.219622,0,0,0,0,0,0,0
9,99999,74,90000,65,10000,40,9999,0.100000,0,0,0.000000,6,0.000000,0.000000,0.601129,0,0,0,0,0,0,0
9,99999,75,90000,30,10000,49,9999,0.100000,0,0,0.000000,6,2.000000,0.000000,10.682030,0,0,0,0,0,0,0
9,99999,76,90000,30,10000,49,9999,0.100000,0,0,0.000000,6,1.000000,0.000000,3.689570,0,0,0,0,0,0,0
9,99999,77,90000,30,10000,40,9999,0.100000,0,0,0.000000,6,0.000000,0.000000,0.502582,0,0,0,0,0,0,0
9,99999,78,90000,24,10000,40,9999,0.100000,0,0,0.000000,6,0.000000,0.000000,1.023806,0,0,0,0,0,0,0
9,99999,79,90000,24,10000,40,9999,0.100000,0,0,0.000000,6,0.000000,0.000000,7.067605,0,0,0,0,0,0,0
9,99999,80,90000,30,10000,49,9999,0.100000,0,0,0.000000,6,3.000000,0.000000,4.135429,0,0,0,0,0,0,0
9,99999,81,90000,16,20000,40,9999,0.100000,0,0,0.000000,6,0.000000,0.000000,5.098339,0,0,0,0,0,0,0
9,99999,82,90000,52,0,40,9999,0.100000,0,0,0.000000,6,0.000000,0.000000,0.806557,0,0,0,0,0,0,0
9,99999,83,90000,16,20000,40,9999,0.100000,0,0,0.000000,6,0.000000,0.000000,2.295123,0,0,0,0,0,0,0
9,99999,84,90000,52,0,49,9999,0.100000,0,0,0.000000,6,1.000000,0.000000,2.317217,0,0,0,0,0,0,0
9,99999,85,90000,24,10000,40,9999,0.100000,0,0,0.000000,6,0.000000,0.000000,0.632459,0,0,0,0,0,0,0
9,99999,86,90000,13,0,49,9999,0.100000,0,0,0.000000,6,1.000000,0.000000,3.207600,0,0,0,0,0,0,0
9,99999,87,90000,24,10000,40,9999,0.100000,0,0,0.000000,6,0.000000,0.000000,1.850802,0,0,0,0,0,0,0
9,99999,88,90000,30,10000,40,9999,0.100000,0,0,0.000000,6,0.000000,0.000000,2.600426,0,0,0,0,0,0,0
9,99999,89,90000,30,10000,40,9999,0.100000,0,0,0.000000,6,0.000000,0.000000,0.549728,0,0,0,0,0,0,0
9,99999,90,90000,65,10000,40,9999,0.100000,0,0,0.000000,6,0.000000,0.000000,0.638406,0,0,0,0,0,0,0
9,99999,91,90000,52,0,40,9999,0.100000,0,0,0.000000,6,0.000000,0.000000,0.447083,0,0,0,0,0,0,0
9,99999,92,90000,24,10000,40,9999,0.100000,0,0,0.000000,6,0.000000,0.000000,0.326389,0,0,0,0,0,0,0
9,99999,93,90000,16,20000,40,9999,0.100000,0,0,0.000000,6,0.000000,0.000000,0.675901,0,0,0,0,0,0,0
9,99999,94,90000,52,0,40,9999,0.100000,0,0,0.000000,6,0.000000,0.000000,0.479955,0,0,0,0,0,0,0
9,99999,95,90000,13,0,40,9999,0.100000,0,0,0.000000,6,0.000000,0.000000,0.117654,0,0,0,0,0,0,0
9,99999,96,90000,30,10000,40,9999,0.100000,0,0,0.000000,6,0.000000,0.000000,0.632756,0,0,0,0,0,0,0
9,99999,97,90000,52,0,40,9999,0.100000,0,0,0.000000,6,0.000000,0.000000,0.787827,0,0,0,0,0,0,0
9,99999,98,90000,30,10000,49,9999,0.100000,0,0,0.000000,6,2.000000,0.000000,5.496270,0,0,0,0,0,0,0
9,99999,99,90000,13,0,40,9999,0.100000,0,0,0.000000,6,0.000000,0.000000,0.936885,0,0,0,0,0,0,0
10,109999,0,100000,65,10000,49,9999,0.100000,0,0,0.000000,6,2.000000,0.000000,11.863080,0,0,0,0,0,0,0
10,109999,1,100000,24,10000,40,9999,0.100000,0,0,0.000000,6,0.000000,0.000000,0.590758,0,0,0,0,0,0,0
10,109999,2,100000,30,10000,49,9999,0.100000,0,0,0.000000,6,3.000000,0.000000,10.175762,0,0,0,0,0,0,0
10,109999,3,100000,65,10000,40,9999,0.100000,0,0,0.000000,6,0.000000,0.000000,0.126934,0,0,0,0,0,0,0
10,109999,4,100000,30,10000,40,9999,0.100000,0,0,0.000000,6,0.000000,0.000000,1.009837,0,0,0,0,0,0,0
10,109999,5,100000,16,20000,40,9999,0.100000,0,0,0.000000,6,0.000000,0.000000,0.101226,0,0,0,0,0,0,0
10,109999,6,100000,16,20000,40,9999,0.100000,0,0,0.000000,6,0.000000,0.000000,0.496760,0,0,0,0,0,0,0
10,109999,7,100000,52,0,40,9999,0.100000,0,0,0.000000,6,0.000000,0.000000,11.871324,0,0,0,0,0,0,0
10,109999,8,100000,30,10000,40,9999,0.100000,0,0,0.000000,6,0.000000,0.000000,0.175008,0,0,0,0,0,0,0
10,109999,9,100000,13,0,40,9999,0.100000,0,0,0.000000,6,0.000000,0.000000,0.177370,0,0,0,0,0,0,0
10,109999,10,100000,13,0,49,9999,0.100000,0,0,0.000000,6,3.000000,0.000000,3.948218,0,0,0,0,0,0,0
10,109999,11,100000,65,10000,40,9999,0.100000,0,0,0.000000,6,0.000000,0.000000,0.152314,0,0,0,0,0,0,0
10,109999,12,100000,30,10000,40,9999,0.100000,0,0,0.000000,6,0.000000,0.000000,2.327613,0,0,0,0,0,0,0
10,109999,13,100000,30,10000,40,9999,0.100000,0,0,0.000000,6,0.000000,0.000000,0.309461,0,0,0,0,0,0,0
10,109999,14,100000,13,0,40,9999,0.100000,0,0,0.000000,6,0.000000,0.000000,0.211796,0,0,0,0,0,0,0
10,109999,15,100000,16,20000,40,9999,0.100000,0,0,0.000000,6,0.000000,0.000000,0.489642,0,0,0,0,0,0,0
10,109999,16,100000,16,20000,40,9999,0.100000,0,0,0.000000,6,0.000000,0.000000,0.653447,0,0,0,0,0,0,0
10,109999,17,100000,30,10000,40,9999,0.100000,0,0,0.000000,6,0.000000,0.000000,0.291893,0,0,0,0,0,0,0
10,109999,18,100000,16,20000,40,9999,0.100000,0,0,0.000000,6,0.000000,0.000000,0.760953,0,0,0,0,0,0,0
10,109999,19,100000,16,20000,40,9999,0.100000,0,0,0.000000,6,0.000000,0.000000,0.956720,0,0,0,0,0,0,0
10,109999,20,100000,65,10000,40,9999,0.100000,0,0,0.000000,6,0.000000,0.000000,0.337143,0,0,0,0,0,0,0
10,109999,21,100000,16,20000,40,9999,0.100000,0,0,0.000000,6,0.000000,0.000000,0.737514,0,0,0,0,0,0,0
10,109999,22,100000,52,0,40,9999,0.100000,0,0,0.000000,6,0.000000,0.000000,0.287429,0,0,0,0,0,0,0
10,109999,23,100000,52,0,49,9999,0.100000,0,0,0.000000,6,4.000000,0.000000,7.434570,0,0,0,0,0,0,0
10,109999,24,100000,52,0,40,9999,0.100000,0,0,0.000000,6,0.000000,0.000000,1.895979,0,0,0,0,0,0,0
10,109999,25,100000,30,10000,40,9999,0.100000,0,0,0.000000,6,0.000000,0.000000,0.990292,0,0,0,0,0,0,0
10,109999,26,100000,13,0,40,9999,0.100000,0,0,0.000000,6,0.000000,0.000000,0.622001,0,0,0,0,0,0,0
10,109999,27,100000,30,10000,40,9999,0.100000,0,0,0.000000,6,0.000000,0.000000,1.067229,0,0,0,0,0,0,0
10,109999,28,100000,65,10000,40,9999,0.100000,0,0,0.000000,6,0.000000,0.000000,4.884879,0,0,0,0,0,0,0
10,109999,29,100000,65,10000,40,9999,0.100000,0,0,0.000000,6,0.000000,0.000000,2.135781,0,0,0,0,0,0,0
10,109999,30,100000,30,10000,40,9999,0.100000,0,0,0.000000,6,0.000000,0.000000,0.123342,0,0,0,0,0,0,0
10,109999,31,100000,30,10000,40,9999,0.100000,0,0,0.000000,6,0.000000,0.000000,0.088744,0,0,0,0,0,0,0
10,109999,32,100000,16,20000,40,9999,0.100000,0,0,0.000000,6,0.000000,0.000000,0.373242,0,0,0,0,0,0,0
10,109999,33,100000,24,10000,40,9999,0.100000,0,0,0.000000,6,0.000000,0.000000,0.222538,0,0,0,0,0,0,0
10,109999,34,100000,16,20000,40,9999,0.100000,0,0,0.000000,6,0.000000,0.000000,0.895335,0,0,0,0,0,0,0
10,109999,35,100000,65,10000,40,9999,0.100000,0,0,0.000000,6,0.000000,0.000000,0.233760,0,0,0,0,0,0,0
10,109999,36,100000,13,0,40,9999,0.100000,0,0,0.000000,6,0.000000,0.000000,1.005440,0,0,0,0,0,0,0
10,109999,37,100000,30,10000,40,9999,0.100000,0,0,0.000000,6,0.000000,0.000000,0.549343,0,0,0,0,0,0,0
10,109999,38,100000,65,10000,49,9999,0.100000,0,0,0.000000,6,3.000000,0.000000,7.680865,0,0,0,0,0,0,0
10,109999,39,100000,13,0,40,9999,0.100000,0,0,0.000000,6,0.000000,0.000000,1.117531,0,0,0,0,0,0,0
10,109999,40,100000,30,10000,40,9999,0.100000,0,0,0.000000,6,0.000000,0.000000,0.077236,0,0,0,0,0,0,0
10,109999,41,100000,65,10000,49,9999,0.100000,0,0,0.000000,6,2.000000,0.000000,4.025578,0,0,0,0,0,0,0
10,109999,42,100000,52,0,40,9999,0.100000,0,0,0.000000,6,0.000000,0.000000,0.139169,0,0,0,0,0,0,0
10,109999,43,100000,52,0,40,9999,0.100000,0,0,0.000000,6,0.000000,0.000000,0.120777,0,0,0,0,0,0,0
10,109999,44,100000,52,0,40,9999,0.100000,0,0,0.000000,6,0.000000,0.000000,1.003672,0,0,0,0,0,0,0
10,109999,45,100000,13,0,40,9999,0.100000,0,0,0.000000,6,0.000000,0.000000,0.475694,0,0,0,0,0,0,0
10,109999,46,100000,16,20000,40,9999,0.100000,0,0,0.000000,6,0.000000,0.000000,0.350682,0,0,0,0,0,0,0
10,109999,47,100000,65,10000,40,9999,0.100000,0,0,0.000000,6,0.000000,0.000000,2.343069,0,0,0,0,0,0,0
10,109999,48,100000,52,0,40,9999,0.100000,0,0,0.000000,6,0.000000,0.000000,0.395144,0,0,0,0,0,0,0
10,109999,49,100000,13,0,40,9999,0.100000,0,0,0.000000,6,0.000000,0.000000,0.892880,0,0,0,0,0,0,0
10,109999,50,100000,65,10000,40,9999,0.100000,0,0,0.000000,6,0.000000,0.000000,2.249425,0,0,0,0,0,0,0
10,109999,51,100000,65,10000,40,9999,0.100000,0,0,0.000000,6,0.000000,0.000000,0.270206,0,0,0,0,0,0,0
10,109999,52,100000,13,0,40,9999,0.100000,0,0,0.000000,6,0.000000,0.000000,0.520901,0,0,0,0,0,0,0
10,109999,53,100000,13,0,40,9999,0.100000,0,0,0.000000,6,0.000000,0.000000,1.200331,0,0,0,0,0,0,0
10,109999,54,100000,30,10000,40,9999,0.100000,0,0,0.000000,6,0.000000,0.000000,0.926830,0,0,0,0,0,0,0
10,109999,55,100000,24,10000,40,9999,0.100000,0,0,0.000000,6,0.000000,0.000000,0.166732,0,0,0,0,0,0,0
10,109999,56,100000,30,10000,40,9999,0.100000,0,0,0.000000,6,0.000000,0.000000,0.396912,0,0,0,0,0,0,0
10,109999,57,100000,16,20000,40,9999,0.100000,0,0,0.000000,6,0.000000,0.000000,0.908394,0,0,0,0,0,0,0
10,109999,58,100000,65,10000,40,9999,0.100000,0,0,0.000000,6,0.000000,0.000000,7.032347,0,0,0,0,0,0,0
10,109999,59,100000,52,0,40,9999,0.100000,0,0,0.000000,6,0.000000,0.000000,2.118957,0,0,0,0,0,0,0
10,109999,60,100000,13,0,40,9999,0.100000,0,0,0.000000,6,0.000000,0.000000,1.580932,0,0,0,0,0,0,0
10,109999,61,100000,30,10000,40,9999,0.100000,0,0,0.000000,6,0.000000,0.000000,0.534984,0,0,0,0,0,0,0
10,109999,62,100000,24,10000,49,9999,0.100000,0,0,0.000000,6,3.000000,0.000000,4.287240,0,0,0,0,0,0,0
10,109999,63,100000,16,20000,40,9999,0.100000,0,0,0.000000,6,0.000000,0.000000,0.077661,0,0,0,0,0,0,0
10,109999,64,100000,24,10000,40,9999,0.100000,0,0,0.000000,6,0.000000,0.000000,0.630131,0,0,0,0,0,0,0
10,109999,65,100000,16,20000,40,9999,0.100000,0,0,0.000000,6,0.000000,0.000000,1.161004,0,0,0,0,0,0,0
10,109999,66,100000,16,20000,40,9999,0.100000,0,0,0.000000,6,0.000000,0.000000,0.401014,0,0,0,0,0,0,0
10,109999,67,100000,13,0,40,9999,0.100000,0,0,0.000000,6,0.000000,0.000000,0.599098,0,0,0,0,0,0,0
10,109999,68,100000,65,10000,40,9999,0.100000,0,0,0.000000,6,0.000000,0.000000,0.104725,0,0,0,0,0,0,0
10,109999,69,100000,24,10000,49,9999,0.100000,0,0,0.000000,6,3.000000,0.000000,4.686621,0,0,0,0,0,0,0
10,109999,70,100000,65,10000,40,9999,0.100000,0,0,0.000000,6,0.000000,0.000000,2.101800,0,0,0,0,0,0,0
10,109999,71,100000,13,0,40,9999,0.100000,0,0,0.000000,6,0.000000,0.000000,0.531877,0,0,0,0,0,0,0
10,109999,72,100000,24,10000,40,9999,0.100000,0,0,0.000000,6,0.000000,0.000000,0.119526,0,0,0,0,0,0,0
10,109999,73,100000,16,20000,40,9999,0.100000,0,0,0.000000,6,0.000000,0.000000,0.457975,0,0,0,0,0,0,0
10,109999,74,100000,24,10000,40,9999,0.100000,0,0,0.000000,6,0.000000,0.000000,0.596752,0,0,0,0,0,0,0
10,109999,75,100000,24,10000,40,9999,0.100000,0,0,0.000000,6,0.000000,0.000000,1.664393,0,0,0,0,0,0,0
10,109999,76,100000,30,10000,40,9999,0.100000,0,0,0.000000,6,0.000000,0.000000,2.318208,0,0,0,0,0,0,0
10,109999,77,100000,13,0,40,9999,0.100000,0,0,0.000000,6,0.000000,0.000000,0.358424,0,0,0,0,0,0,0
10,109999,78,90000,24,10000,40,19999,0.100000,0,0,0.000000,6,0.000000,0.000000,0.215341,0,0,0,0,0,0,0
10,109999,79,100000,16,20000,49,9999,0.100000,0,0,0.000000,6,1.000000,0.000000,10.719606,0,0,0,0,0,0,0
10,109999,80,100000,65,10000,40,9999,0.100000,0,0,0.000000,6,0.000000,0.000000,0.214893,0,0,0,0,0,0,0
10,109999,81,100000,24,10000,40,9999,0.100000,0,0,0.000000,6,0.000000,0.000000,4.629977,0,0,0,0,0,0,0
10,109999,82,100000,30,10000,40,9999,0.100000,0,0,0.000000,6,0.000000,0.000000,0.664862,0,0,0,0,0,0,0
10,109999,83,100000,30,10000,40,9999,0.100000,0,0,0.000000,6,0.000000,0.000000,0.224140,0,0,0,0,0,0,0
10,109999,84,100000,13,0,49,9999,0.100000,0,0,0.000000,6,5.000000,0.000000,13.719882,0,0,0,0,0,0,0
10,109999,85,100000,16,20000,40,9999,0.100000,0,0,0.000000,6,0.000000,0.000000,0.504097,0,0,0,0,0,0,0
10,109999,86,100000,16,20000,40,9999,0.100000,0,0,0.000000,6,0.000000,0.000000,10.485523,0,0,0,0,0,0,0
10,109999,87,100000,52,0,49,9999,0.100000,0,0,0.000000,6,2.000000,0.000000,8.625797,0,0,0,0,0,0,0
10,109999,88,100000,24,10000,40,9999,0.100000,0,0,0.000000,6,0.000000,0.000000,1.937642,0,0,0,0,0,0,0
10,109999,89,100000,65,10000,40,9999,0.100000,0,0,0.000000,6,0.000000,0.000000,0.250770,0,0,0,0,0,0,0
10,109999,90,100000,16,20000,40,9999,0.100000,0,0,0.000000,6,0.000000,0.000000,0.684126,0,0,0,0,0,0,0
10,109999,91,100000,13,0,40,9999,0.100000,0,0,0.000000,6,0.000000,0.000000,0.606985,0,0,0,0,0,0,0
10,109999,92,100000,65,10000,49,9999,0.100000,0,0,0.000000,6,6.000000,0.000000,12.379888,0,0,0,0,0,0,0
10,109999,93,100000,16,20000,40,9999,0.100000,0,0,0.000000,6,0.000000,0.000000,0.936091,0,0,0,0,0,0,0
10,109999,94,100000,13,0,40,9999,0.100000,0,0,0.000000,6,0.000000,0.000000,0.353428,0,0,0,0,0,0,0
10,109999,95,100000,30,10000,49,9999,0.100000,0,0,0.000000,6,9.000000,0.000000,18.252669,0,0,0,0,0,0,0
10,109999,96,100000,13,0,40,9999,0.100000,0,0,0.000000,6,0.000000,0.000000,0.848228,0,0,0,0,0,0,0
10,109999,97,100000,65,10000,40,9999,0.100000,0,0,0.000000,6,0.000000,0.000000,0.927719,0,0,0,0,0,0,0
10,109999,98,100000,52,0,40,9999,0.100000,0,0,0.000000,6,0.000000,0.000000,5.980661,0,0,0,0,0,0,0
10,109999,99,100000,30,10000,40,9999,0.100000,0,0,0.000000,6,0.000000,0.000000,0.957571,0,0,0,0,0,0,0
11,119999,0,110000,16,20000,49,9999,0.100000,0,0,0.000000,6,1.000000,0.000000,4.781721,0,0,0,0,0,0,0
11,119999,1,110000,65,10000,40,9999,0.100000,0,0,0.000000,6,0.000000,0.000000,0.569320,0,0,0,0,0,0,0
11,119999,2,110000,52,0,49,9999,0.100000,0,0,0.000000,6,2.000000,0.000000,7.185032,0,0,0,0,0,0,0
11,119999,3,110000,24,10000,40,9999,0.100000,0,0,0.000000,6,0.000000,0.000000,0.132043,0,0,0,0,0,0,0
11,119999,4,110000,16,20000,40,9999,0.100000,0,0,0.000000,6,0.000000,0.000000,0.791058,0,0,0,0,0,0,0
11,119999,5,110000,13,0,40,9999,0.100000,0,0,0.000000,6,0.000000,0.000000,0.092664,0,0,0,0,0,0,0
11,119999,6,110000,16,20000,40,9999,0.100000,0,0,0.000000,6,0.000000,0.000000,0.317607,0,0,0,0,0,0,0
11,119999,7,110000,65,10000,40,9999,0.100000,0,0,0.000000,6,0.000000,0.000000,1.538056,0,0,0,0,0,0,0
11,119999,8,110000,24,10000,40,9999,0.100000,0,0,0.000000,6,0.000000,0.000000,0.170076,0,0,0,0,0,0,0
11,119999,9,110000,65,10000,40,9999,0.100000,0,0,0.000000,6,0.000000,0.000000,0.257893,0,0,0,0,0,0,0
11,119999,10,110000,16,20000,40,9999,0.100000,0,0,0.000000,6,0.000000,0.000000,0.575849,0,0,0,0,0,0,0
11,119999,11,110000,16,20000,40,9999,0.100000,0,0,0.000000,6,0.000000,0.000000,0.151937,0,0,0,0,0,0,0
11,119999,12,110000,24,10000,40,9999,0.100000,0,0,0.000000,6,0.000000,0.000000,24.003860,0,0,0,0,0,0,0
11,119999,13,110000,52,0,40,9999,0.100000,0,0,0.000000,6,0.000000,0.000000,0.878713,0,0,0,0,0,0,0
11,119999,14,110000,24,10000,40,9999,0.100000,0,0,0.000000,6,0.000000,0.000000,0.220120,0,0,0,0,0,0,0
11,119999,15,110000,52,0,40,9999,0.100000,0,0,0.000000,6,0.000000,0.000000,0.198172,0,0,0,0,0,0,0
11,119999,16,110000,30,10000,40,9999,0.100000,0,0,0.000000,6,0.000000,0.000000,1.780634,0,0,0,0,0,0,0
11,119999,17,110000,65,10000,40,9999,0.100000,0,0,0.000000,6,0.000000,0.000000,0.270070,0,0,0,0,0,0,0
11,119999,18,110000,13,0,40,9999,0.100000,0,0,0.000000,6,0.000000,0.000000,0.687646,0,0,0,0,0,0,0
11,119999,19,110000,24,10000,40,9999,0.100000,0,0,0.000000,6,0.000000,0.000000,0.958434,0,0,0,0,0,0,0
11,119999,20,110000,13,0,40,9999,0.100000,0,0,0.000000,6,0.000000,0.000000,0.299271,0,0,0,0,0,0,0
11,119999,21,110000,13,0,49,9999,0.100000,0,0,0.000000,6,2.000000,0.000000,3.409575,0,0,0,0,0,0,0
11,119999,22,110000,16,20000,40,9999,0.100000,0,0,0.000000,6,0.000000,0.000000,0.261768,0,0,0,0,0,0,0
11,119999,23,110000,30,10000,49,9999,0.100000,0,0,0.000000,6,3.000000,0.000000,11.161213,0,0,0,0,0,0,0
11,119999,24,110000,30,10000,40,9999,0.100000,0,0,0.000000,6,0.000000,0.000000,0.646749,0,0,0,0,0,0,0
11,119999,25,110000,65,10000,40,9999,0.100000,0,0,0.000000,6,0.000000,0.000000,0.710147,0,0,0,0,0,0,0
11,119999,26,110000,30,10000,40,9999,0.100000,0,0,0.000000,6,0.000000,0.000000,0.453909,0,0,0,0,0,0,0
11,119999,27,110000,24,10000,49,9999,0.100000,0,0,0.000000,6,1.000000,0.000000,8.190115,0,0,0,0,0,0,0
11,119999,28,110000,13,0,40,9999,0.100000,0,0,0.000000,6,0.000000,0.000000,1.344327,0,0,0,0,0,0,0
11,119999,29,110000,65,10000,40,9999,0.100000,0,0,0.000000,6,0.000000,0.000000,1.967323,0,0,0,0,0,0,0
11,119999,30,110000,13,0,40,9999,0.100000,0,0,0.000000,6,0.000000,0.000000,0.128832,0,0,0,0,0,0,0
11,119999,31,110000,65,10000,40,9999,0.100000,0,0,0.000000,6,0.000000,0.000000,0.091860,0,0,0,0,0,0,0
11,119999,32,110000,65,10000,40,9999,0.100000,0,0,0.000000,6,0.000000,0.000000,0.390432,0,0,0,0,0,0,0
11,119999,33,110000,24,10000,40,9999,0.100000,0,0,0.000000,6,0.000000,0.000000,1.053535,0,0,0,0,0,0,0
11,119999,34,110000,13,0,40,9999,0.100000,0,0,0.000000,6,0.000000,0.000000,0.157819,0,0,0,0,0,0,0
11,119999,35,110000,65,10000,40,9999,0.100000,0,0,0.000000,6,0.000000,0.000000,0.229231,0,0,0,0,0,0,0
11,119999,36,110000,16,20000,40,9999,0.100000,0,0,0.000000,6,0.000000,0.000000,1.280231,0,0,0,0,0,0,0
11,119999,37,110000,52,0,40,9999,0.100000,0,0,0.000000,6,0.000000,0.000000,0.943545,0,0,0,0,0,0,0
11,119999,38,110000,30,10000,40,9999,0.100000,0,0,0.000000,6,0.000000,0.000000,0.099827,0,0,0,0,0,0,0
11,119999,39,110000,13,0,40,9999,0.100000,0,0,0.000000,6,0.000000,0.000000,1.709156,0,0,0,0,0,0,0
11,119999,40,110000,16,20000,40,9999,0.100000,0,0,0.000000,6,0.000000,0.000000,0.078744,0,0,0,0,0,0,0
11,119999,41,110000,13,0,40,9999,0.100000,0,0,0.000000,6,0.000000,0.000000,0.700552,0,0,0,0,0,0,0
11,119999,42,110000,13,0,40,9999,0.100000,0,0,0.000000,6,0.000000,0.000000,0.123167,0,0,0,0,0,0,0
11,119999,43,110000,52,0,40,9999,0.100000,0,0,0.000000,6,0.000000,0.000000,0.129922,0,0,0,0,0,0,0
11,119999,44,110000,24,10000,40,9999,0.100000,0,0,0.000000,6,0.000000,0.000000,1.057989,0,0,0,0,0,0,0
11,119999,45,110000,30,10000,40,9999,0.100000,0,0,0.000000,6,0.000000,0.000000,0.778233,0,0,0,0,0,0,0
11,119999,46,110000,24,10000,40,9999,0.100000,0,0,0.000000,6,0.000000,0.000000,0.356221,0,0,0,0,0,0,0
11,119999,47,110000,24,10000,40,9999,0.100000,0,0,0.000000,6,0.000000,0.000000,0.241875,0,0,0,0,0,0,0
11,119999,48,110000,30,10000,40,9999,0.100000,0,0,0.000000,6,0.000000,0.000000,0.135362,0,0,0,0,0,0,0
11,119999,49,110000,13,0,40,9999,0.100000,0,0,0.000000,6,0.000000,0.000000,0.900572,0,0,0,0,0,0,0
11,119999,50,110000,52,0,40,9999,0.100000,0,0,0.000000,6,0.000000,0.000000,0.729410,0,0,0,0,0,0,0
11,119999,51,110000,30,10000,40,9999,0.100000,0,0,0.000000,6,0.000000,0.000000,0.217064,0,0,0,0,0,0,0
11,119999,52,110000,52,0,40,9999,0.100000,0,0,0.000000,6,0.000000,0.000000,4.217788,0,0,0,0,0,0,0
11,119999,53,110000,65,10000,40,9999,0.100000,0,0,0.000000,6,0.000000,0.000000,1.654156,0,0,0,0,0,0,0
11,119999,54,110000,30,10000,40,9999,0.100000,0,0,0.000000,6,0.000000,0.000000,0.933146,0,0,0,0,0,0,0
11,119999,55,110000,13,0,40,9999,0.100000,0,0,0.000000,6,0.000000,0.000000,0.180523,0,0,0,0,0,0,0
11,119999,56,110000,30,10000,40,9999,0.100000,0,0,0.000000,6,0.000000,0.000000,0.393080,0,0,0,0,0,0,0
11,119999,57,110000,52,0,40,9999,0.100000,0,0,0.000000,6,0.000000,0.000000,3.768486,0,0,0,0,0,0,0
11,119999,58,110000,24,10000,40,9999,0.100000,0,0,0.000000,6,0.000000,0.000000,4.776289,0,0,0,0,0,0,0
11,119999,59,100000,52,0,40,19999,0.100000,0,0,0.000000,6,0.000000,0.000000,0.710446,0,0,0,0,0,0,0
11,119999,60,110000,52,0,40,9999,0.100000,0,0,0.000000,6,0.000000,0.000000,0.659741,0,0,0,0,0,0,0
11,119999,61,110000,52,0,40,9999,0.100000,0,0,0.000000,6,0.000000,0.000000,2.387492,0,0,0,0,0,0,0
11,119999,62,110000,65,10000,40,9999,0.100000,0,0,0.000000,6,0.000000,0.000000,0.884638,0,0,0,0,0,0,0
11,119999,63,110000,24,10000,40,9999,0.100000,0,0,0.000000,6,0.000000,0.000000,0.078487,0,0,0,0,0,0,0
11,119999,64,110000,24,10000,40,9999,0.100000,0,0,0.000000,6,0.000000,0.000000,0.461414,0,0,0,0,0,0,0
11,119999,65,110000,30,10000,40,9999,0.100000,0,0,0.000000,6,0.000000,0.000000,1.217444,0,0,0,0,0,0,0
11,119999,66,110000,65,10000,40,9999,0.100000,0,0,0.000000,6,0.000000,0.000000,0.392261,0,0,0,0,0,0,0
11,119999,67,110000,13,0,40,9999,0.100000,0,0,0.000000,6,0.000000,0.000000,0.572833,0,0,0,0,0,0,0
11,119999,68,110000,24,10000,40,9999,0.100000,0,0,0.000000,6,0.000000,0.000000,0.104623,0,0,0,0,0,0,0
11,119999,69,110000,16,20000,40,9999,0.100000,0,0,0.000000,6,0.000000,0.000000,0.646688,0,0,0,0,0,0,0
11,119999,70,110000,30,10000,40,9999,0.100000,0,0,0.000000,6,0.000000,0.000000,1.078062,0,0,0,0,0,0,0
11,119999,71,110000,30,10000,40,9999,0.100000,0,0,0.000000,6,0.000000,0.000000,0.457126,0,0,0,0,0,0,0
11,119999,72,110000,65,10000,40,9999,0.100000,0,0,0.000000,6,0.000000,0.000000,0.115437,0,0,0,0,0,0,0
11,119999,73,110000,30,10000,40,9999,0.100000,0,0,0.000000,6,0.000000,0.000000,0.107136,0,0,0,0,0,0,0
11,119999,74,110000,65,10000,40,9999,0.100000,0,0,0.000000,6,0.000000,0.000000,0.490461,0,0,0,0,0,0,0
11,119999,75,110000,24,10000,40,9999,0.100000,0,0,0.000000,6,0.000000,0.000000,1.774922,0,0,0,0,0,0,0
11,119999,76,110000,30,10000,40,9999,0.100000,0,0,0.000000,6,0.000000,0.000000,1.620299,0,0,0,0,0,0,0
11,119999,77,110000,16,20000,40,9999,0.100000,0,0,0.000000,6,0.000000,0.000000,0.352797,0,0,0,0,0,0,0
11,119999,78,110000,13,0,40,9999,0.100000,0,0,0.000000,6,0.000000,0.000000,0.937669,0,0,0,0,0,0,0
11,119999,79,110000,52,0,40,9999,0.100000,0,0,0.000000,6,0.000000,0.000000,7.714311,0,0,0,0,0,0,0
11,119999,80,110000,24,10000,40,9999,0.100000,0,0,0.000000,6,0.000000,0.000000,0.400780,0,0,0,0,0,0,0
11,119999,81,110000,13,0,49,9999,0.100000,0,0,0.000000,6,2.000000,0.000000,4.405137,0,0,0,0,0,0,0
11,119999,82,110000,13,0,40,9999,0.100000,0,0,0.000000,6,0.000000,0.000000,0.385617,0,0,0,0,0,0,0
11,119999,83,110000,65,10000,40,9999,0.100000,0,0,0.000000,6,0.000000,0.000000,1.507527,0,0,0,0,0,0,0
11,119999,84,110000,30,10000,40,9999,0.100000,0,0,0.000000,6,0.000000,0.000000,0.136704,0,0,0,0,0,0,0
11,119999,85,110000,52,0,40,9999,0.100000,0,0,0.000000,6,0.000000,0.000000,1.421787,0,0,0,0,0,0,0
11,119999,86,110000,65,10000,40,9999,0.100000,0,0,0.000000,6,0.000000,0.000000,2.452359,0,0,0,0,0,0,0
11,119999,87,110000,65,10000,49,9999,0.100000,0,0,0.000000,6,1.000000,0.000000,12.323352,0,0,0,0,0,0,0
11,119999,88,110000,16,20000,49,9999,0.100000,0,0,0.000000,6,1.000000,0.000000,3.157461,0,0,0,0,0,0,0
11,119999,89,110000,30,10000,40,9999,0.100000,0,0,0.000000,6,0.000000,0.000000,0.210665,0,0,0,0,0,0,0
11,119999,90,110000,52,0,40,9999,0.100000,0,0,0.000000,6,0.000000,0.000000,0.747212,0,0,0,0,0,0,0
11,119999,91,110000,52,0,40,9999,0.100000,0,0,0.000000,6,0.000000,0.000000,0.666931,0,0,0,0,0,0,0
11,119999,92,110000,13,0,40,9999,0.100000,0,0,0.000000,6,0.000000,0.000000,0.324941,0,0,0,0,0,0,0
11,119999,93,110000,65,10000,40,9999,0.100000,0,0,0.000000,6,0.000000,0.000000,0.599067,0,0,0,0,0,0,0
11,119999,94,110000,52,0,40,9999,0.100000,0,0,0.000000,6,0.000000,0.000000,1.068732,0,0,0,0,0,0,0
11,119999,95,110000,65,10000,40,9999,0.100000,0,0,0.000000,6,0.000000,0.000000,0.118842,0,0,0,0,0,0,0
11,119999,96,110000,13,0,40,9999,0.100000,0,0,0.000000,6,0.000000,0.000000,0.754475,0,0,0,0,0,0,0
11,119999,97,110000,13,0,40,9999,0.100000,0,0,0.000000,6,0.000000,0.000000,0.998502,0,0,0,0,0,0,0
11,119999,98,110000,65,10000,40,9999,0.100000,0,0,0.000000,6,0.000000,0.000000,2.573914,0,0,0,0,0,0,0
11,119999,99,110000,65,10000,40,9999,0.100000,0,0,0.000000,6,0.000000,0.000000,1.835487,0,0,0,0,0,0,0
12,129999,0,120000,52,0,40,9999,0.100000,0,0,0.000000,6,0.000000,0.000000,3.789317,0,0,0,0,0,0,0
12,129999,1,120000,52,0,40,9999,0.100000,0,0,0.000000,6,0.000000,0.000000,0.463477,0,0,0,0,0,0,0
12,129999,2,120000,16,20000,40,9999,0.100000,0,0,0.000000,6,0.000000,0.000000,1.225996,0,0,0,0,0,0,0
12,129999,3,120000,24,10000,40,9999,0.100000,0,0,0.000000,6,0.000000,0.000000,0.132936,0,0,0,0,0,0,0
12,129999,4,120000,30,10000,49,9999,0.100000,0,0,0.000000,6,1.000000,0.000000,2.518248,0,0,0,0,0,0,0
12,129999,5,120000,65,10000,40,9999,0.100000,0,0,0.000000,6,0.000000,0.000000,0.128963,0,0,0,0,0,0,0
12,129999,6,120000,16,20000,40,9999,0.100000,0,0,0.000000,6,0.000000,0.000000,0.273075,0,0,0,0,0,0,0
12,129999,7,120000,16,20000,40,9999,0.100000,0,0,0.000000,6,0.000000,0.000000,2.185059,0,0,0,0,0,0,0
12,129999,8,120000,52,0,40,9999,0.100000,0,0,0.000000,6,0.000000,0.000000,0.173101,0,0,0,0,0,0,0
12,129999,9,120000,30,10000,40,9999,0.100000,0,0,0.000000,6,0.000000,0.000000,0.182957,0,0,0,0,0,0,0
12,129999,10,120000,16,20000,40,9999,0.100000,0,0,0.000000,6,0.000000,0.000000,0.278819,0,0,0,0,0,0,0
12,129999,11,120000,16,20000,40,9999,0.100000,0,0,0.000000,6,0.000000,0.000000,0.139395,0,0,0,0,0,0,0
12,129999,12,120000,30,10000,40,9999,0.100000,0,0,0.000000,6,0.000000,0.000000,19.561985,0,0,0,0,0,0,0
12,129999,13,120000,65,10000,49,9999,0.100000,0,0,0.000000,6,1.000000,0.000000,8.653492,0,0,0,0,0,0,0
12,129999,14,120000,52,0,40,9999,0.100000,0,0,0.000000,6,0.000000,0.000000,0.197908,0,0,0,0,0,0,0
12,129999,15,120000,24,10000,40,9999,0.100000,0,0,0.000000,6,0.000000,0.000000,0.184818,0,0,0,0,0,0,0
12,129999,16,120000,30,10000,40,9999,0.100000,0,0,0.000000,6,0.000000,0.000000,0.261637,0,0,0,0,0,0,0
12,129999,17,120000,13,0,40,9999,0.100000,0,0,0.000000,6,0.000000,0.000000,0.304186,0,0,0,0,0,0,0
12,129999,18,120000,13,0,40,9999,0.100000,0,0,0.000000,6,0.000000,0.000000,0.478009,0,0,0,0,0,0,0
12,129999,19,120000,52,0,40,9999,0.100000,0,0,0.000000,6,0.000000,0.000000,0.886223,0,0,0,0,0,0,0
12,129999,20,120000,13,0,40,9999,0.100000,0,0,0.000000,6,0.000000,0.000000,0.338579,0,0,0,0,0,0,0
12,129999,21,120000,24,10000,49,9999,0.100000,0,0,0.000000,6,1.000000,0.000000,3.476263,0,0,0,0,0,0,0
12,129999,22,120000,30,10000,40,9999,0.100000,0,0,0.000000,6,0.000000,0.000000,0.280949,0,0,0,0,0,0,0
12,129999,23,120000,13,0,40,9999,0.100000,0,0,0.000000,6,0.000000,0.000000,1.376458,0,0,0,0,0,0,0
12,129999,24,120000,52,0,40,9999,0.100000,0,0,0.000000,6,0.000000,0.000000,7.861194,0,0,0,0,0,0,0
12,129999,25,120000,52,0,40,9999,0.100000,0,0,0.000000,6,0.000000,0.000000,0.938131,0,0,0,0,0,0,0
12,129999,26,120000,30,10000,40,9999,0.100000,0,0,0.000000,6,0.000000,0.000000,0.677345,0,0,0,0,0,0,0
12,129999,27,120000,16,20000,40,9999,0.100000,0,0,0.000000,6,0.000000,0.000000,2.391185,0,0,0,0,0,0,0
12,129999,28,120000,24,10000,40,9999,0.100000,0,0,0.000000,6,0.000000,0.000000,1.812927,0,0,0,0,0,0,0
12,129999,29,120000,65,10000,40,9999,0.100000,0,0,0.000000,6,0.000000,0.000000,1.023872,0,0,0,0,0,0,0
